##YUNITS=%T
399.282035 14.454351 
400.246484 14.719547 
401.210934 14.968843 
402.175383 15.280146 
403.139832 15.746221 
404.104282 16.222776 
405.068731 16.614827 
406.033181 16.981065 
406.997630 17.306539 
407.962079 17.627519 
408.926529 17.984838 
409.890978 18.370460 
410.855427 18.734557 
411.819877 19.078135 
412.784326 19.382026 
413.748775 19.644807 
414.713225 19.848945 
415.677674 19.994874 
416.642124 20.086971 
417.606573 20.240386 
418.571022 20.463946 
419.535472 20.747313 
420.499921 21.010408 
421.464370 21.223920 
422.428820 21.346444 
423.393269 21.428742 
424.357718 21.530331 
425.322168 21.643291 
426.286617 21.730272 
427.251066 21.844684 
428.215516 21.907288 
429.179965 21.988493 
430.144415 22.267582 
431.108864 22.506697 
432.073313 22.572422 
433.037763 22.663456 
434.002212 22.852074 
434.966661 23.124680 
435.931111 23.411167 
436.895560 23.565319 
437.860009 23.681077 
438.824459 23.873502 
439.788908 24.101422 
440.753358 24.404072 
441.717807 24.723591 
442.682256 25.031950 
443.646706 25.320827 
444.611155 25.615447 
445.575604 25.899275 
446.540054 26.199586 
447.504503 26.498466 
448.468952 26.817499 
449.433402 27.157021 
450.397851 27.523174 
451.362300 27.900601 
452.326750 28.282816 
453.291199 28.665444 
454.255649 29.073096 
455.220098 29.533811 
456.184547 30.032312 
457.148997 30.574797 
458.113446 31.236770 
459.077895 32.010136 
460.042345 32.913030 
461.006794 33.934833 
461.971243 35.092241 
462.935693 36.398502 
463.900142 37.863660 
464.864592 39.445879 
465.829041 41.134412 
466.793490 42.913153 
467.757940 44.780900 
468.722389 46.713282 
469.686838 48.700497 
470.651288 50.720277 
471.615737 52.768525 
472.580186 54.808996 
473.544636 56.833794 
474.509085 58.816597 
475.473534 60.795118 
476.437984 62.724847 
477.402433 64.578011 
478.366883 66.345037 
479.331332 68.045346 
480.295781 69.630490 
481.260231 71.083666 
482.224680 72.387854 
483.189129 73.553203 
484.153579 74.555811 
485.118028 75.384261 
486.082477 76.048819 
487.046927 76.569942 
488.011376 76.958427 
488.975826 77.200673 
489.940275 77.337722 
490.904724 77.430748 
491.869174 77.427923 
492.833623 77.335510 
493.798072 77.144031 
494.762522 76.870389 
495.726971 76.516244 
496.691420 76.061710 
497.655870 75.464702 
498.620319 74.754996 
499.584768 73.964405 
500.549218 73.109861 
501.513667 72.171892 
502.478117 71.157971 
503.442566 70.070416 
504.407015 68.926340 
505.371465 67.720186 
506.335914 66.472699 
507.300363 65.197594 
508.264813 63.903508 
509.229262 62.572318 
510.193711 61.219220 
511.158161 59.842941 
512.122610 58.459144 
513.087060 57.037443 
514.051509 55.583195 
515.015958 54.109923 
515.980408 52.631402 
516.944857 51.128240 
517.909306 49.596472 
518.873756 48.040054 
519.838205 46.476753 
520.802654 44.904401 
521.767104 43.320316 
522.731553 41.732290 
523.696002 40.160319 
524.660452 38.589119 
525.624901 37.023788 
526.589351 35.461428 
527.553800 33.918008 
528.518249 32.398093 
529.482699 30.907033 
530.447148 29.437599 
531.411597 28.013641 
532.376047 26.643108 
533.340496 25.319373 
534.304945 24.026307 
535.269395 22.780922 
536.233844 21.586524 
537.198294 20.446134 
538.162743 19.358984 
539.127192 18.331874 
540.091642 17.366833 
541.056091 16.462172 
542.020540 15.609360 
542.984990 14.813130 
543.949439 14.072783 
544.913888 13.399551 
545.878338 12.776924 
546.842787 12.200048 
547.807236 11.671793 
548.771686 11.195899 
549.736135 10.763032 
550.700585 10.376451 
551.665034 10.033999 
552.629483 9.737230 
553.593933 9.470436 
554.558382 9.230380 
555.522831 9.019459 
556.487281 8.844370 
557.451730 8.696276 
558.416179 8.570182 
559.380629 8.461945 
560.345078 8.379567 
561.309528 8.317611 
562.273977 8.270373 
563.238426 8.229687 
564.202876 8.209113 
565.167325 8.204767 
566.131774 8.210785 
567.096224 8.219503 
568.060673 8.237830 
569.025122 8.263789 
569.989572 8.299824 
570.954021 8.335247 
571.918470 8.378209 
572.882920 8.429765 
573.847369 8.490457 
574.811819 8.548099 
575.776268 8.607920 
576.740717 8.670654 
577.705167 8.739152 
578.669616 8.804496 
579.634065 8.873038 
580.598515 8.947111 
581.562964 9.025916 
582.527413 9.108828 
583.491863 9.196542 
584.456312 9.281415 
585.420762 9.368192 
586.385211 9.452386 
587.349660 9.538454 
588.314110 9.632026 
589.278559 9.731789 
590.243008 9.830752 
591.207458 9.931470 
592.171907 10.033714 
593.136356 10.139199 
594.100806 10.245348 
595.065255 10.348923 
596.029704 10.453361 
596.994154 10.564015 
597.958603 10.672050 
598.923053 10.777046 
599.887502 10.882016 
600.851951 10.994284 
601.816401 11.109521 
602.780850 11.224893 
603.745299 11.337667 
604.709749 11.455108 
605.674198 11.573684 
606.638647 11.692964 
607.603097 11.808529 
608.567546 11.928581 
609.531996 12.052296 
610.496445 12.177578 
611.460894 12.298359 
612.425344 12.420315 
613.389793 12.543031 
614.354242 12.666427 
615.318692 12.789028 
616.283141 12.912308 
617.247590 13.035807 
618.212040 13.160037 
619.176489 13.279708 
620.140938 13.397276 
621.105388 13.516106 
622.069837 13.639106 
623.034287 13.762760 
623.998736 13.883933 
624.963185 14.000837 
625.927635 14.117846 
626.892084 14.231093 
627.856533 14.342136 
628.820983 14.453577 
629.785432 14.565752 
630.749881 14.673841 
631.714331 14.779816 
632.678780 14.883956 
633.643230 14.988953 
634.607679 15.093808 
635.572128 15.198649 
636.536578 15.302629 
637.501027 15.409526 
638.465476 15.517963 
639.429926 15.626718 
640.394375 15.734266 
641.358824 15.843850 
642.323274 15.953504 
643.287723 16.062988 
644.252172 16.172751 
645.216622 16.286525 
646.181071 16.403298 
647.145521 16.520498 
648.109970 16.637967 
649.074419 16.759422 
650.038869 16.884627 
651.003318 17.015581 
651.967767 17.137597 
652.932217 17.260768 
653.896666 17.390922 
654.861115 17.523480 
655.825565 17.653337 
656.790014 17.781898 
657.754464 17.913461 
658.718913 18.049713 
659.683362 18.183253 
660.647812 18.315995 
661.612261 18.450823 
662.576710 18.587638 
663.541160 18.721974 
664.505609 18.855767 
665.470058 18.990631 
666.434508 19.128364 
667.398957 19.264783 
668.363406 19.399940 
669.327856 19.536960 
670.292305 19.677302 
671.256755 19.817128 
672.221204 19.955069 
673.185653 20.090467 
674.150103 20.228569 
675.114552 20.368328 
676.079001 20.508349 
677.043451 20.649651 
678.007900 20.793800 
678.972349 20.939381 
679.936799 21.084444 
680.901248 21.228945 
681.865698 21.376282 
682.830147 21.524248 
683.794596 21.669681 
684.759046 21.803701 
685.723495 21.944721 
686.687944 22.090670 
687.652394 22.234164 
688.616843 22.373963 
689.581292 22.513514 
690.545742 22.655376 
691.510191 22.797758 
692.474640 22.936475 
693.439090 23.075718 
694.403539 23.217377 
695.367989 23.360080 
696.332438 23.499927 
697.296887 23.638043 
698.261337 23.776953 
699.225786 23.917685 
700.190235 24.056394 
701.154685 24.192613 
702.119134 24.328628 
703.083583 24.465226 
704.048033 24.599241 
705.012482 24.730298 
705.976932 24.861143 
706.941381 24.996269 
707.905830 25.130628 
708.870280 25.262905 
709.834729 25.395214 
710.799178 25.530077 
711.763628 25.666291 
712.728077 25.800988 
713.692526 25.935422 
714.656976 26.074125 
715.621425 26.215168 
716.585874 26.357449 
717.550324 26.500629 
718.514773 26.651532 
719.479223 26.809263 
720.443672 26.970936 
721.408121 27.131823 
722.372571 27.297942 
723.337020 27.473157 
724.301469 27.655761 
725.265919 27.841204 
726.230368 28.032378 
727.194817 28.233595 
728.159267 28.443445 
729.123716 28.654522 
730.088166 28.870130 
731.052615 29.095699 
732.017064 29.332473 
732.981514 29.572381 
733.945963 29.813909 
734.910412 30.063007 
735.874862 30.323089 
736.839311 30.586129 
737.803760 30.850339 
738.768210 31.120002 
739.732659 31.399081 
740.697108 31.681864 
741.661558 31.965196 
742.626007 32.252567 
743.590457 32.550092 
744.554906 32.853513 
745.519355 33.157941 
746.483805 33.464826 
747.448254 33.780887 
748.412703 34.104957 
749.377153 34.431734 
750.341602 34.759355 
751.306051 35.094539 
752.270501 35.437876 
753.234950 35.784085 
754.199400 36.128711 
755.163849 36.482448 
756.128298 36.847885 
757.092748 37.217502 
758.057197 37.586941 
759.021646 37.963261 
759.986096 38.351903 
760.950545 38.749141 
761.914994 39.148743 
762.879444 39.557730 
763.843893 39.979994 
764.808342 40.411514 
765.772792 40.843560 
766.737241 41.280642 
767.701691 41.731130 
768.666140 42.194582 
769.630589 42.659520 
770.595039 43.126468 
771.559488 43.602809 
772.523937 44.092022 
773.488387 44.585202 
774.452836 45.078895 
775.417285 45.579719 
776.381735 46.092789 
777.346184 46.608466 
778.310634 47.120382 
779.275083 47.632964 
780.239532 48.155657 
781.203982 48.683267 
782.168431 49.206332 
783.132880 49.725440 
784.097330 50.250324 
785.061779 50.777859 
786.026228 51.298526 
786.990678 51.811221 
787.955127 52.327817 
788.919576 52.846711 
789.884026 53.358002 
790.848475 53.857453 
791.812925 54.353513 
792.777374 54.851708 
793.741823 55.346808 
794.706273 55.829181 
795.670722 56.305182 
796.635171 56.782081 
797.599621 57.254708 
798.564070 57.713146 
799.528519 58.163538 
800.492969 58.614050 
801.457418 59.060987 
802.421868 59.493837 
803.386317 59.915372 
804.350766 60.334687 
805.315216 60.753716 
806.279665 61.161772 
807.244114 61.554745 
808.208564 61.941456 
809.173013 62.327412 
810.137462 62.702875 
811.101912 63.063237 
812.066361 63.416294 
813.030810 63.771373 
813.995260 64.119915 
814.959709 64.452221 
815.924159 64.773474 
816.888608 65.096104 
817.853057 65.416009 
818.817507 65.722431 
819.781956 66.017259 
820.746405 66.312325 
821.710855 66.605673 
822.675304 66.887716 
823.639753 67.155588 
824.604203 67.422636 
825.568652 67.694413 
826.533102 67.961170 
827.497551 68.210838 
828.462000 68.451834 
829.426450 68.691637 
830.390899 68.922580 
831.355348 69.135924 
832.319798 69.340687 
833.284247 69.546401 
834.248696 69.749533 
835.213146 69.941254 
836.177595 70.126529 
837.142044 70.316770 
838.106494 70.516585 
839.070943 70.718242 
840.035393 70.922652 
840.999842 71.138822 
841.964291 71.364469 
842.928741 71.578400 
843.893190 71.763790 
844.857639 71.918289 
845.822089 72.042368 
846.786538 72.124066 
847.750987 72.158131 
848.715437 72.159283 
849.679886 72.146675 
850.644336 72.124526 
851.608785 72.093372 
852.573234 72.066447 
853.537684 72.062111 
854.502133 72.080362 
855.466582 72.111460 
856.431032 72.155084 
857.395481 72.224491 
858.359930 72.320590 
859.324380 72.428293 
860.288829 72.539310 
861.253278 72.666937 
862.217728 72.818698 
863.182177 72.986800 
864.146627 73.164199 
865.111076 73.361068 
866.075525 73.587571 
867.039975 73.838769 
868.004424 74.104053 
868.968873 74.387045 
869.933323 74.695219 
870.897772 75.023122 
871.862221 75.352420 
872.826671 75.672553 
873.791120 75.979446 
874.755570 76.261951 
875.720019 76.497690 
876.684468 76.678889 
877.648918 76.819880 
878.613367 76.934478 
879.577816 77.022666 
880.542266 77.088441 
881.506715 77.150532 
882.471164 77.226202 
883.435614 77.313597 
884.400063 77.403867 
885.364512 77.501061 
886.328962 77.614804 
887.293411 77.736510 
888.257861 77.851378 
889.222310 77.959218 
890.186759 78.071669 
891.151209 78.186494 
892.115658 78.290733 
893.080107 78.382381 
894.044557 78.473300 
895.009006 78.568557 
895.973455 78.659747 
896.937905 78.739856 
897.902354 78.818293 
898.866804 78.902962 
899.831253 78.986177 
900.795702 79.056468 
901.760152 79.118705 
902.724601 79.181411 
903.689050 79.241640 
904.653500 79.289950 
905.617949 79.326524 
906.582398 79.363077 
907.546848 79.403430 
908.511297 79.437367 
909.475746 79.464853 
910.440196 79.499189 
911.404645 79.545602 
912.369095 79.593873 
913.333544 79.639109 
914.297993 79.691603 
915.262443 79.759782 
916.226892 79.835513 
917.191341 79.910259 
918.155791 79.990071 
919.120240 80.083132 
920.084689 80.181903 
921.049139 80.276835 
922.013588 80.371780 
922.978038 80.477692 
923.942487 80.593319 
924.906936 80.707458 
925.871386 80.817408 
926.835835 80.933105 
927.800284 81.058027 
928.764734 81.183264 
929.729183 81.302773 
930.693632 81.426369 
931.658082 81.559236 
932.622531 81.691425 
933.586980 81.814381 
934.551430 81.935864 
935.515879 82.065224 
936.480329 82.197926 
937.444778 82.324622 
938.409227 82.449841 
939.373677 82.584878 
940.338126 82.729085 
941.302575 82.870826 
942.267025 83.009466 
943.231474 83.156430 
944.195923 83.313676 
945.160373 83.468942 
946.124822 83.618566 
947.089272 83.771421 
948.053721 83.932826 
949.018170 84.094270 
949.982620 84.248738 
950.947069 84.402420 
951.911518 84.562849 
952.875968 84.724297 
953.840417 84.878430 
954.804866 85.028264 
955.769316 85.184899 
956.733765 85.345454 
957.698214 85.497221 
958.662664 85.640184 
959.627113 85.786136 
960.591563 85.937208 
961.556012 86.082701 
962.520461 86.218111 
963.484911 86.352887 
964.449360 86.490974 
965.413809 86.623530 
966.378259 86.744412 
967.342708 86.861185 
968.307157 86.982778 
969.271607 87.104130 
970.236056 87.216430 
971.200506 87.324548 
972.164955 87.436595 
973.129404 87.551137 
974.093854 87.658334 
975.058303 87.757601 
976.022752 87.857122 
976.987202 87.955286 
977.951651 88.039394 
978.916100 88.105692 
979.880550 88.163960 
980.844999 88.222169 
981.809448 88.275331 
982.773898 88.318512 
983.738347 88.359196 
984.702797 88.406539 
985.667246 88.455915 
986.631695 88.498540 
987.596145 88.538754 
988.560594 88.587330 
989.525043 88.641495 
990.489493 88.691402 
991.453942 88.738431 
992.418391 88.792423 
993.382841 88.853286 
994.347290 88.910240 
995.311740 88.961815 
996.276189 89.018129 
997.240638 89.083452 
998.205088 89.150105 
999.169537 89.211155 
1000.133986 89.273217 
1001.098436 89.345363 
1002.062885 89.421358 
1003.027334 89.490716 
1003.991784 89.557865 
1004.956233 89.631106 
1005.920682 89.706583 
1006.885132 89.772708 
1007.849581 89.829621 
1008.814031 89.887171 
1009.778480 89.946327 
1010.742929 89.997881 
1011.707379 90.040313 
1012.671828 90.083989 
1013.636277 90.134726 
1014.600727 90.185763 
1015.565176 90.231005 
1016.529625 90.277391 
1017.494075 90.332283 
1018.458524 90.388761 
1019.422974 90.437500 
1020.387423 90.484307 
1021.351872 90.539375 
1022.316322 90.598816 
1023.280771 90.652773 
1024.245220 90.701831 
1025.209670 90.754324 
1026.174119 90.810569 
1027.138568 90.862061 
1028.103018 90.909054 
1029.067467 90.961060 
1030.031916 91.019260 
1030.996366 91.072768 
1031.960815 91.115380 
1032.925265 91.156574 
1033.889714 91.204373 
1034.854163 91.250843 
1035.818613 91.287857 
1036.783062 91.321303 
1037.747511 91.357901 
1038.711961 91.393813 
1039.676410 91.421840 
1040.640859 91.446544 
1041.605309 91.477705 
1042.569758 91.514203 
1043.534208 91.544734 
1044.498657 91.566207 
1045.463106 91.589359 
1046.427556 91.620528 
1047.392005 91.652778 
1048.356454 91.680246 
1049.320904 91.709462 
1050.285353 91.745945 
1051.249802 91.781597 
1052.214252 91.808864 
1053.178701 91.836452 
1054.143150 91.872543 
1055.107600 91.907163 
1056.072049 91.924077 
1057.036499 91.924101 
1058.000948 91.919742 
1058.965397 91.914641 
1059.929847 91.903832 
1060.894296 91.887760 
1061.858745 91.872793 
1062.823195 91.860265 
1063.787644 91.843651 
1064.752093 91.820568 
1065.716543 91.800301 
1066.680992 91.789885 
1067.645442 91.782974 
1068.609891 91.774004 
1069.574340 91.767328 
1070.538790 91.769482 
1071.503239 91.779268 
1072.467688 91.790920 
1073.432138 91.806407 
1074.396587 91.834218 
1075.361036 91.872814 
1076.325486 91.911500 
1077.289935 91.950467 
1078.254384 92.000490 
1079.218834 92.063874 
1080.183283 92.132159 
1081.147733 92.199764 
1082.112182 92.271888 
1083.076631 92.352428 
1084.041081 92.435625 
1085.005530 92.514811 
1085.969979 92.593958 
1086.934429 92.677199 
1087.898878 92.756715 
1088.863327 92.826105 
1089.827777 92.894698 
1090.792226 92.973560 
1091.756676 93.063098 
1092.721125 93.154100 
1093.685574 93.243501 
1094.650024 93.337850 
1095.614473 93.440296 
1096.578922 93.544547 
1097.543372 93.645569 
1098.507821 93.749922 
1099.472270 93.862597 
1100.436720 93.975838 
1101.401169 94.081371 
1102.365618 94.181805 
1103.330068 94.284014 
1104.294517 94.383563 
1105.258967 94.470753 
1106.223416 94.545430 
1107.187865 94.615772 
1108.152315 94.681039 
1109.116764 94.734055 
1110.081213 94.776214 
1111.045663 94.816067 
1112.010112 94.854705 
1112.974561 94.885779 
1113.939011 94.906597 
1114.903460 94.925842 
1115.867910 94.949409 
1116.832359 94.972344 
1117.796808 94.989069 
1118.761258 95.007522 
1119.725707 95.035551 
1120.690156 95.068813 
1121.654606 95.098853 
1122.619055 95.129351 
1123.583504 95.168485 
1124.547954 95.215625 
1125.512403 95.262655 
1126.476852 95.310656 
1127.441302 95.367658 
1128.405751 95.435942 
1129.370201 95.507901 
1130.334650 95.579227 
1131.299099 95.657235 
1132.263549 95.748105 
1133.227998 95.844670 
1134.192447 95.938631 
1135.156897 96.033924 
1136.121346 96.138634 
1137.085795 96.247717 
1138.050245 96.352459 
1139.014694 96.456749 
1139.979144 96.570841 
1140.943593 96.692418 
1141.908042 96.811244 
1142.872492 96.926093 
1143.836941 97.046129 
1144.801390 97.173842 
1145.765840 97.302317 
1146.730289 97.427197 
1147.694738 97.554642 
1148.659188 97.686915 
1149.623637 97.816812 
1150.588086 97.939131 
1151.552536 98.059542 
1152.516985 98.182149 
1153.481435 98.301895 
1154.445884 98.409620 
1155.410333 98.509636 
1156.374783 98.609962 
1157.339232 98.710425 
1158.303681 98.802970 
1159.268131 98.886416 
1160.232580 98.968852 
1161.197029 99.053084 
1162.161479 99.131231 
1163.125928 99.201449 
1164.090378 99.270804 
1165.054827 99.343229 
1166.019276 99.410722 
1166.983726 99.468402 
1167.948175 99.522487 
1168.912624 99.580186 
1169.877074 99.637096 
1170.841523 99.684483 
1171.805972 99.724978 
1172.770422 99.766025 
1173.734871 99.805419 
1174.699320 99.837150 
1175.663770 99.862165 
1176.628219 99.890198 
1177.592669 99.922240 
1178.557118 99.949356 
1179.521567 99.966789 
1180.486017 99.983071 
1181.450466 100.002784 
1182.414915 100.019911 
1183.379365 100.029139 
1184.343814 100.036836 
1185.308263 100.048351 
1186.272713 100.061125 
1187.237162 100.070461 
1188.201612 100.080313 
1189.166061 100.096542 
1190.130510 100.116670 
1191.094960 100.132586 
1192.059409 100.146000 
1193.023858 100.165885 
1193.988308 100.193484 
1194.952757 100.219796 
1195.917206 100.242148 
1196.881656 100.266507 
1197.846105 100.297310 
1198.810554 100.328422 
1199.775004 100.355912 
1200.739453 100.384994 
1201.703903 100.419744 
1202.668352 100.454958 
1203.632801 100.483885 
1204.597251 100.511365 
1205.561700 100.545600 
1206.526149 100.583685 
1207.490599 100.619308 
1208.455048 100.652578 
1209.419497 100.691334 
1210.383947 100.735938 
1211.348396 100.778842 
1212.312846 100.817952 
1213.277295 100.861750 
1214.241744 100.912689 
1215.206194 100.964101 
1216.170643 101.011462 
1217.135092 101.061678 
1218.099542 101.119523 
1219.063991 101.181947 
1220.028440 101.241338 
1220.992890 101.299099 
1221.957339 101.361548 
1222.921788 101.427601 
1223.886238 101.489476 
1224.850687 101.547444 
1225.815137 101.607585 
1226.779586 101.671592 
1227.744035 101.731664 
1228.708485 101.785079 
1229.672934 101.837955 
1230.637383 101.894201 
1231.601833 101.947053 
1232.566282 101.993033 
1233.530731 102.037858 
1234.495181 102.085951 
1235.459630 102.133903 
1236.424080 102.176393 
1237.388529 102.216214 
1238.352978 102.259686 
1239.317428 102.305049 
1240.281877 102.347525 
1241.246326 102.386684 
1242.210776 102.428699 
1243.175225 102.474117 
1244.139674 102.515830 
1245.104124 102.551909 
1246.068573 102.590435 
1247.033022 102.634494 
1247.997472 102.678647 
1248.961921 102.717767 
1249.926371 102.757251 
1250.890820 102.802405 
1251.855269 102.849867 
1252.819719 102.892304 
1253.784168 102.931950 
1254.748617 102.974869 
1255.713067 103.017501 
1256.677516 103.052124 
1257.641965 103.082688 
1258.606415 103.115228 
1259.570864 103.151261 
1260.535314 103.182537 
1261.499763 103.206740 
1262.464212 103.229649 
1263.428662 103.255536 
1264.393111 103.278937 
1265.357560 103.296280 
1266.322010 103.312759 
1267.286459 103.332615 
1268.250908 103.350224 
1269.215358 103.361412 
1270.179807 103.371940 
1271.144256 103.386762 
1272.108706 103.399229 
1273.073155 103.404823 
1274.037605 103.404418 
1275.002054 103.403389 
1275.966503 103.402923 
1276.930953 103.398162 
1277.895402 103.388054 
1278.859851 103.380205 
1279.824301 103.374879 
1280.788750 103.365358 
1281.753199 103.350124 
1282.717649 103.336185 
1283.682098 103.327343 
1284.646548 103.318611 
1285.610997 103.303837 
1286.575446 103.286791 
1287.539896 103.273069 
1288.504345 103.259662 
1289.468794 103.242680 
1290.433244 103.226280 
1291.397693 103.213210 
1292.362142 103.200982 
1293.326592 103.183938 
1294.291041 103.163961 
1295.255490 103.147147 
1296.219940 103.134674 
1297.184389 103.118759 
1298.148839 103.097588 
1299.113288 103.076477 
1300.077737 103.059886 
1301.042187 103.041552 
1302.006636 103.020400 
1302.971085 102.996450 
1303.935535 102.972707 
1304.899984 102.945950 
1305.864433 102.915947 
1306.828883 102.884180 
1307.793332 102.855897 
1308.757782 102.830682 
1309.722231 102.802621 
1310.686680 102.770509 
1311.651130 102.741044 
1312.615579 102.715234 
1313.580028 102.688389 
1314.544478 102.659223 
1315.508927 102.632793 
1316.473376 102.610998 
1317.437826 102.589596 
1318.402275 102.564481 
1319.366724 102.541527 
1320.331174 102.522853 
1321.295623 102.507563 
1322.260073 102.492276 
1323.224522 102.476070 
1324.188971 102.456952 
1325.153421 102.437553 
1326.117870 102.419968 
1327.082319 102.403337 
1328.046769 102.389902 
1329.011218 102.377953 
1329.975667 102.364331 
1330.940117 102.348822 
1331.904566 102.335937 
1332.869016 102.326868 
1333.833465 102.316782 
1334.797914 102.304224 
1335.762364 102.289143 
1336.726813 102.279251 
1337.691262 102.271713 
1338.655712 102.261716 
1339.620161 102.250924 
1340.584610 102.243412 
1341.549060 102.236654 
1342.513509 102.227471 
1343.477958 102.217551 
1344.442408 102.208123 
1345.406857 102.200182 
1346.371307 102.189345 
1347.335756 102.166980 
1348.300205 102.148794 
1349.264655 102.134165 
1350.229104 102.118834 
1351.193553 102.101596 
1352.158003 102.083140 
1353.122452 102.062694 
1354.086901 102.042674 
1355.051351 102.018227 
1356.015800 101.990276 
1356.980250 101.960168 
1357.944699 101.929659 
1358.909148 101.896328 
1359.873598 101.861407 
1360.838047 101.828512 
1361.802496 101.794646 
1362.766946 101.757445 
1363.731395 101.716604 
1364.695844 101.676653 
1365.660294 101.638567 
1366.624743 101.599664 
1367.589192 101.556971 
1368.553642 101.511136 
1369.518091 101.466002 
1370.482541 101.414351 
1371.446990 101.346405 
1372.411439 101.279245 
1373.375889 101.217925 
1374.340338 101.156281 
1375.304787 101.093308 
1376.269237 101.030754 
1377.233686 100.969880 
1378.198135 100.906756 
1379.162585 100.838239 
1380.127034 100.769690 
1381.091484 100.714793 
1382.055933 100.660538 
1383.020382 100.596824 
1383.984832 100.531803 
1384.949281 100.470122 
1385.913730 100.411870 
1386.878180 100.358471 
1387.842629 100.304018 
1388.807078 100.242233 
1389.771528 100.177952 
1390.735977 100.116931 
1391.700426 100.057882 
1392.664876 100.001540 
1393.629325 99.944671 
1394.593775 99.887134 
1395.558224 99.826677 
1396.522673 99.763934 
1397.487123 99.701816 
1398.451572 99.642839 
1399.416021 99.581943 
1400.380471 99.515954 
1401.344920 99.444545 
1402.309369 99.369687 
1403.273819 99.274351 
1404.238268 99.183523 
1405.202718 99.109966 
1406.167167 99.040155 
1407.131616 98.965638 
1408.096066 98.880901 
1409.060515 98.793615 
1410.024964 98.704320 
1410.989414 98.616956 
1411.953863 98.533228 
1412.918312 98.445552 
1413.882762 98.339210 
1414.847211 98.228687 
1415.811660 98.117022 
1416.776110 98.005738 
1417.740559 97.889845 
1418.705009 97.773329 
1419.669458 97.651321 
1420.633907 97.493414 
1421.598357 97.330637 
1422.562806 97.172092 
1423.527255 97.007371 
1424.491705 96.809857 
1425.456154 96.580430 
1426.420603 96.323006 
1427.385053 96.045646 
1428.349502 95.741389 
1429.313952 95.408196 
1430.278401 95.044551 
1431.242850 94.643521 
1432.207300 94.191417 
1433.171749 93.690547 
1434.136198 93.140253 
1435.100648 92.540955 
1436.065097 91.887358 
1437.029546 91.202829 
1437.993996 90.474613 
1438.958445 89.702228 
1439.922894 88.886142 
1440.887344 88.008078 
1441.851793 87.104804 
1442.816243 86.180902 
1443.780692 85.254676 
1444.745141 84.321920 
1445.709591 83.382556 
1446.674040 82.454142 
1447.638489 81.562442 
1448.602939 80.672831 
1449.567388 79.802530 
1450.531837 78.985351 
1451.496287 78.217307 
1452.460736 77.492036 
1453.425186 76.815081 
1454.389635 76.228683 
1455.354084 75.697068 
1456.318534 75.192862 
1457.282983 74.722596 
1458.247432 74.332955 
1459.211882 74.030986 
1460.176331 73.776481 
1461.140780 73.581904 
1462.105230 73.447798 
1463.069679 73.362425 
1464.034128 73.320617 
1464.998578 73.308750 
1465.963027 73.330058 
1466.927477 73.382018 
1467.891926 73.457683 
1468.856375 73.553580 
1469.820825 73.670784 
1470.785274 73.792788 
1471.749723 73.917919 
1472.714173 74.053706 
1473.678622 74.175083 
1474.643071 74.308910 
1475.607521 74.466689 
1476.571970 74.648747 
1477.536420 74.832695 
1478.500869 75.020734 
1479.465318 75.209152 
1480.429768 75.382769 
1481.394217 75.566403 
1482.358666 75.773629 
1483.323116 75.998340 
1484.287565 76.239551 
1485.252014 76.495372 
1486.216464 76.763229 
1487.180913 77.049604 
1488.145362 77.348056 
1489.109812 77.668223 
1490.074261 78.008268 
1491.038711 78.359119 
1492.003160 78.730359 
1492.967609 79.113329 
1493.932059 79.540248 
1494.896508 79.995590 
1495.860957 80.458868 
1496.825407 80.936101 
1497.789856 81.434326 
1498.754305 81.955438 
1499.718755 82.499775 
1500.683204 83.042378 
1501.647654 83.582501 
1502.612103 84.150611 
1503.576552 84.729304 
1504.541002 85.306976 
1505.505451 85.869383 
1506.469900 86.410170 
1507.434350 86.977372 
1508.398799 87.565579 
1509.363248 88.132899 
1510.327698 88.688226 
1511.292147 89.231892 
1512.256596 89.752012 
1513.221046 90.263958 
1514.185495 90.788198 
1515.149945 91.291843 
1516.114394 91.788807 
1517.078843 92.273135 
1518.043293 92.726449 
1519.007742 93.175172 
1519.972191 93.614001 
1520.936641 94.037409 
1521.901090 94.436254 
1522.865539 94.785544 
1523.829989 95.091130 
1524.794438 95.422630 
1525.758888 95.737536 
1526.723337 96.036330 
1527.687786 96.330191 
1528.652236 96.596862 
1529.616685 96.851212 
1530.581134 97.107844 
1531.545584 97.348620 
1532.510033 97.578488 
1533.474482 97.783866 
1534.438932 97.981927 
1535.403381 98.194363 
1536.367830 98.383399 
1537.332280 98.547911 
1538.296729 98.691944 
1539.261179 98.853555 
1540.225628 99.032485 
1541.190077 99.194354 
1542.154527 99.334047 
1543.118976 99.439321 
1544.083425 99.503155 
1545.047875 99.616377 
1546.012324 99.752145 
1546.976773 99.887582 
1547.941223 100.012102 
1548.905672 100.119114 
1549.870122 100.219217 
1550.834571 100.326257 
1551.799020 100.444083 
1552.763470 100.542729 
1553.727919 100.608727 
1554.692368 100.678228 
1555.656818 100.735070 
1556.621267 100.785606 
1557.585716 100.862918 
1558.550166 100.930888 
1559.514615 100.988733 
1560.479064 101.020006 
1561.443514 101.059674 
1562.407963 101.110025 
1563.372413 101.168166 
1564.336862 101.218203 
1565.301311 101.263409 
1566.265761 101.299466 
1567.230210 101.335751 
1568.194659 101.376626 
1569.159109 101.410178 
1570.123558 101.436143 
1571.088007 101.456847 
1572.052457 101.490258 
1573.016906 101.515605 
1573.981356 101.523707 
1574.945805 101.514942 
1575.910254 101.498049 
1576.874704 101.516734 
1577.839153 101.587265 
1578.803602 101.623157 
1579.768052 101.642717 
1580.732501 101.654066 
1581.696950 101.663227 
1582.661400 101.680739 
1583.625849 101.695702 
1584.590298 101.701364 
1585.554748 101.695792 
1586.519197 101.688725 
1587.483647 101.705305 
1588.448096 101.709018 
1589.412545 101.704883 
1590.376995 101.696327 
1591.341444 101.680780 
1592.305893 101.655111 
1593.270343 101.628972 
1594.234792 101.628898 
1595.199241 101.617341 
1596.163691 101.598759 
1597.128140 101.575466 
1598.092590 101.552048 
1599.057039 101.531323 
1600.021488 101.499210 
1600.985938 101.446126 
1601.950387 101.408239 
1602.914836 101.377642 
1603.879286 101.347548 
1604.843735 101.316709 
1605.808184 101.287387 
1606.772634 101.249704 
1607.737083 101.202003 
1608.701532 101.163501 
1609.665982 101.130749 
1610.630431 101.098868 
1611.594881 101.059647 
1612.559330 101.022667 
1613.523779 100.991311 
1614.488229 100.962995 
1615.452678 100.936533 
1616.417127 100.911056 
1617.381577 100.889675 
1618.346026 100.870953 
1619.310475 100.821171 
1620.274925 100.782824 
1621.239374 100.753142 
1622.203824 100.727422 
1623.168273 100.709845 
1624.132722 100.695003 
1625.097172 100.682685 
1626.061621 100.669195 
1627.026070 100.661925 
1627.990520 100.663959 
1628.954969 100.668557 
1629.919418 100.659428 
1630.883868 100.647713 
1631.848317 100.627857 
1632.812766 100.611014 
1633.777216 100.612830 
1634.741665 100.649328 
1635.706115 100.688880 
1636.670564 100.690886 
1637.635013 100.654215 
1638.599463 100.651808 
1639.563912 100.665443 
1640.528361 100.693345 
1641.492811 100.736447 
1642.457260 100.773967 
1643.421709 100.806959 
1644.386159 100.839173 
1645.350608 100.881320 
1646.315058 100.912027 
1647.279507 100.932269 
1648.243956 100.963015 
1649.208406 100.996064 
1650.172855 101.027572 
1651.137304 101.052451 
1652.101754 101.068433 
1653.066203 101.095407 
1654.030652 101.126608 
1654.995102 101.159680 
1655.959551 101.192483 
1656.924000 101.229524 
1657.888450 101.271386 
1658.852899 101.293845 
1659.817349 101.310395 
1660.781798 101.341002 
1661.746247 101.367089 
1662.710697 101.385710 
1663.675146 101.409741 
1664.639595 101.433707 
1665.604045 101.477043 
1666.568494 101.522816 
1667.532943 101.549293 
1668.497393 101.504682 
1669.461842 101.474683 
1670.426292 101.489468 
1671.390741 101.559099 
1672.355190 101.609942 
1673.319640 101.647285 
1674.284089 101.675792 
1675.248538 101.704346 
1676.212988 101.734288 
1677.177437 101.765188 
1678.141886 101.796144 
1679.106336 101.811680 
1680.070785 101.814671 
1681.035234 101.843972 
1681.999684 101.876458 
1682.964133 101.913412 
1683.928583 101.907296 
1684.893032 101.881314 
1685.857481 101.887248 
1686.821931 101.923340 
1687.786380 101.952137 
1688.750829 101.976085 
1689.715279 102.002486 
1690.679728 102.011753 
1691.644177 102.015791 
1692.608627 102.039970 
1693.573076 102.074412 
1694.537526 102.093394 
1695.501975 102.108942 
1696.466424 102.119575 
1697.430874 102.131194 
1698.395323 102.136707 
1699.359772 102.127771 
1700.324222 102.109429 
1701.288671 102.078497 
1702.253120 102.093528 
1703.217570 102.100713 
1704.182019 102.104335 
1705.146468 102.106040 
1706.110918 102.110426 
1707.075367 102.111313 
1708.039817 102.112171 
1709.004266 102.113467 
1709.968715 102.114324 
1710.933165 102.110347 
1711.897614 102.096020 
1712.862063 102.085237 
1713.826513 102.090363 
1714.790962 102.085495 
1715.755411 102.075128 
1716.719861 102.050000 
1717.684310 102.038367 
1718.648760 102.035567 
1719.613209 102.034185 
1720.577658 102.031114 
1721.542108 102.030409 
1722.506557 102.033813 
1723.471006 102.022791 
1724.435456 102.018018 
1725.399905 102.021497 
1726.364354 102.022383 
1727.328804 102.014465 
1728.293253 102.008089 
1729.257702 102.001219 
1730.222152 101.990047 
1731.186601 101.971457 
1732.151051 101.951302 
1733.115500 101.929376 
1734.079949 101.902619 
1735.044399 101.869191 
1736.008848 101.860137 
1736.973297 101.855647 
1737.937747 101.846549 
1738.902196 101.839187 
1739.866645 101.828188 
1740.831095 101.809334 
1741.795544 101.797423 
1742.759994 101.788614 
1743.724443 101.781331 
1744.688892 101.773836 
1745.653342 101.749296 
1746.617791 101.721830 
1747.582240 101.708680 
1748.546690 101.695165 
1749.511139 101.669937 
1750.475588 101.636212 
1751.440038 101.616278 
1752.404487 101.612708 
1753.368936 101.598865 
1754.333386 101.580887 
1755.297835 101.551310 
1756.262285 101.495330 
1757.226734 101.454124 
1758.191183 101.434148 
1759.155633 101.402546 
1760.120082 101.362730 
1761.084531 101.333462 
1762.048981 101.308023 
1763.013430 101.282286 
1763.977879 101.252581 
1764.942329 101.217256 
1765.906778 101.192697 
1766.871228 101.179089 
1767.835677 101.164561 
1768.800126 101.160835 
1769.764576 101.165149 
1770.729025 101.173201 
1771.693474 101.185637 
1772.657924 101.198821 
1773.622373 101.216958 
1774.586822 101.247032 
1775.551272 101.276307 
1776.515721 101.292828 
1777.480170 101.311466 
1778.444620 101.337326 
1779.409069 101.377113 
1780.373519 101.414758 
1781.337968 101.447247 
1782.302417 101.477980 
1783.266867 101.498248 
1784.231316 101.507987 
1785.195765 101.518585 
1786.160215 101.532861 
1787.124664 101.535006 
1788.089113 101.526959 
1789.053563 101.516915 
1790.018012 101.524399 
1790.982462 101.533613 
1791.946911 101.526763 
1792.911360 101.521010 
1793.875810 101.516031 
1794.840259 101.501524 
1795.804708 101.486020 
1796.769158 101.467544 
1797.733607 101.450782 
1798.698056 101.441248 
1799.662506 101.430873 
1800.626955 101.415931 
1801.591404 101.395749 
1802.555854 101.383376 
1803.520303 101.374017 
1804.484753 101.363134 
1805.449202 101.351206 
1806.413651 101.335684 
1807.378101 101.318183 
1808.342550 101.298863 
1809.306999 101.268660 
1810.271449 101.258081 
1811.235898 101.254380 
1812.200347 101.246135 
1813.164797 101.229210 
1814.129246 101.202106 
1815.093696 101.181928 
1816.058145 101.163918 
1817.022594 101.150965 
1817.987044 101.138437 
1818.951493 101.123444 
1819.915942 101.113920 
1820.880392 101.103327 
1821.844841 101.088443 
1822.809290 101.074298 
1823.773740 101.059607 
1824.738189 101.045935 
1825.702638 101.033877 
1826.667088 101.020332 
1827.631537 100.996080 
1828.595987 100.966593 
1829.560436 100.948622 
1830.524885 100.935310 
1831.489335 100.918900 
1832.453784 100.900281 
1833.418233 100.883154 
1834.382683 100.866320 
1835.347132 100.851580 
1836.311581 100.836972 
1837.276031 100.822442 
1838.240480 100.806271 
1839.204930 100.789137 
1840.169379 100.772866 
1841.133828 100.753709 
1842.098278 100.731596 
1843.062727 100.720740 
1844.027176 100.708459 
1844.991626 100.690125 
1845.956075 100.663633 
1846.920524 100.642120 
1847.884974 100.636272 
1848.849423 100.627946 
1849.813872 100.616185 
1850.778322 100.603260 
1851.742771 100.589541 
1852.707221 100.568672 
1853.671670 100.543325 
1854.636119 100.524557 
1855.600569 100.509510 
1856.565018 100.494618 
1857.529467 100.480394 
1858.493917 100.463214 
1859.458366 100.442022 
1860.422815 100.413893 
1861.387265 100.394481 
1862.351714 100.390474 
1863.316164 100.377857 
1864.280613 100.359886 
1865.245062 100.344226 
1866.209512 100.332736 
1867.173961 100.319484 
1868.138410 100.305220 
1869.102860 100.290477 
1870.067309 100.277067 
1871.031758 100.263442 
1871.996208 100.252896 
1872.960657 100.238456 
1873.925106 100.218605 
1874.889556 100.202148 
1875.854005 100.187968 
1876.818455 100.175289 
1877.782904 100.164434 
1878.747353 100.150775 
1879.711803 100.134656 
1880.676252 100.120084 
1881.640701 100.105973 
1882.605151 100.090786 
1883.569600 100.072708 
1884.534049 100.053619 
1885.498499 100.033699 
1886.462948 100.020477 
1887.427398 100.012209 
1888.391847 100.000542 
1889.356296 99.988449 
1890.320746 99.977186 
1891.285195 99.964265 
1892.249644 99.950050 
1893.214094 99.935596 
1894.178543 99.919488 
1895.142992 99.904398 
1896.107442 99.888861 
1897.071891 99.873648 
1898.036340 99.859292 
1899.000790 99.844890 
1899.965239 99.830836 
1900.929689 99.816242 
1901.894138 99.793293 
1902.858587 99.772661 
1903.823037 99.755193 
1904.787486 99.738658 
1905.751935 99.719368 
1906.716385 99.697405 
1907.680834 99.680514 
1908.645283 99.663551 
1909.609733 99.646334 
1910.574182 99.628831 
1911.538632 99.607799 
1912.503081 99.587431 
1913.467530 99.570907 
1914.431980 99.554460 
1915.396429 99.538940 
1916.360878 99.522036 
1917.325328 99.504265 
1918.289777 99.486401 
1919.254226 99.469645 
1920.218676 99.452013 
1921.183125 99.434137 
1922.147574 99.416877 
1923.112024 99.400577 
1924.076473 99.383659 
1925.040923 99.370530 
1926.005372 99.348458 
1926.969821 99.317638 
1927.934271 99.298558 
1928.898720 99.280323 
1929.863169 99.259604 
1930.827619 99.239825 
1931.792068 99.221436 
1932.756517 99.201747 
1933.720967 99.178732 
1934.685416 99.154198 
1935.649866 99.139268 
1936.614315 99.124696 
1937.578764 99.106828 
1938.543214 99.086252 
1939.507663 99.062691 
1940.472112 99.043786 
1941.436562 99.027226 
1942.401011 99.008849 
1943.365460 98.990079 
1944.329910 98.970884 
1945.294359 98.951527 
1946.258808 98.933668 
1947.223258 98.916162 
1948.187707 98.897970 
1949.152157 98.879315 
1950.116606 98.860706 
1951.081055 98.840941 
1952.045505 98.820673 
1953.009954 98.801403 
1953.974403 98.782560 
1954.938853 98.763977 
1955.903302 98.745842 
1956.867751 98.726743 
1957.832201 98.705140 
1958.796650 98.675934 
1959.761100 98.653049 
1960.725549 98.641764 
1961.689998 98.624081 
1962.654448 98.604867 
1963.618897 98.587985 
1964.583346 98.571774 
1965.547796 98.553473 
1966.512245 98.535295 
1967.476694 98.518408 
1968.441144 98.502041 
1969.405593 98.484480 
1970.370042 98.467823 
1971.334492 98.452317 
1972.298941 98.435227 
1973.263391 98.418187 
1974.227840 98.404305 
1975.192289 98.389093 
1976.156739 98.367369 
1977.121188 98.346614 
1978.085637 98.328156 
1979.050087 98.311355 
1980.014536 98.295152 
1980.978985 98.278947 
1981.943435 98.261894 
1982.907884 98.242570 
1983.872334 98.223215 
1984.836783 98.206642 
1985.801232 98.191011 
1986.765682 98.173844 
1987.730131 98.156754 
1988.694580 98.140208 
1989.659030 98.124096 
1990.623479 98.107650 
1991.587928 98.090995 
1992.552378 98.074807 
1993.516827 98.058591 
1994.481276 98.041053 
1995.445726 98.023405 
1996.410175 98.006961 
1997.374625 97.991275 
1998.339074 97.974991 
1999.303523 97.961841 
2000.267973 97.948913 
2001.232422 97.932076 
2002.196871 97.913494 
2003.161321 97.894479 
2004.125770 97.875757 
2005.090219 97.856377 
2006.054669 97.838768 
2007.019118 97.820684 
2007.983568 97.797974 
2008.948017 97.775542 
2009.912466 97.759605 
2010.876916 97.742651 
2011.841365 97.724634 
2012.805814 97.707510 
2013.770264 97.689827 
2014.734713 97.670867 
2015.699162 97.652188 
2016.663612 97.635368 
2017.628061 97.618380 
2018.592510 97.600086 
2019.556960 97.581810 
2020.521409 97.564652 
2021.485859 97.548464 
2022.450308 97.531381 
2023.414757 97.513729 
2024.379207 97.497313 
2025.343656 97.479187 
2026.308105 97.459754 
2027.272555 97.440225 
2028.237004 97.421523 
2029.201453 97.404301 
2030.165903 97.386446 
2031.130352 97.367229 
2032.094802 97.347723 
2033.059251 97.325098 
2034.023700 97.301385 
2034.988150 97.279202 
2035.952599 97.257036 
2036.917048 97.236893 
2037.881498 97.216827 
2038.845947 97.195767 
2039.810396 97.173836 
2040.774846 97.153059 
2041.739295 97.133129 
2042.703744 97.112141 
2043.668194 97.090178 
2044.632643 97.069356 
2045.597093 97.049449 
2046.561542 97.029837 
2047.525991 97.011373 
2048.490441 96.992056 
2049.454890 96.970639 
2050.419339 96.949089 
2051.383789 96.927061 
2052.348238 96.904753 
2053.312687 96.883111 
2054.277137 96.862312 
2055.241586 96.840550 
2056.206036 96.818238 
2057.170485 96.795426 
2058.134934 96.771257 
2059.099384 96.748360 
2060.063833 96.725982 
2061.028282 96.703576 
2061.992732 96.682532 
2062.957181 96.661380 
2063.921630 96.639698 
2064.886080 96.618277 
2065.850529 96.597556 
2066.814978 96.576737 
2067.779428 96.555035 
2068.743877 96.533501 
2069.708327 96.513617 
2070.672776 96.494411 
2071.637225 96.474617 
2072.601675 96.454694 
2073.566124 96.435032 
2074.530573 96.414801 
2075.495023 96.394349 
2076.459472 96.373266 
2077.423921 96.353009 
2078.388371 96.334642 
2079.352820 96.316902 
2080.317270 96.297855 
2081.281719 96.276270 
2082.246168 96.254600 
2083.210618 96.235588 
2084.175067 96.216261 
2085.139516 96.196900 
2086.103966 96.178837 
2087.068415 96.161600 
2088.032864 96.142946 
2088.997314 96.124216 
2089.961763 96.106820 
2090.926212 96.090252 
2091.890662 96.073647 
2092.855111 96.057017 
2093.819561 96.041017 
2094.784010 96.026105 
2095.748459 96.010687 
2096.712909 95.994356 
2097.677358 95.978174 
2098.641807 95.962132 
2099.606257 95.945385 
2100.570706 95.927968 
2101.535155 95.910603 
2102.499605 95.894381 
2103.464054 95.877674 
2104.428504 95.859271 
2105.392953 95.840545 
2106.357402 95.822454 
2107.321852 95.805154 
2108.286301 95.787968 
2109.250750 95.769781 
2110.215200 95.752660 
2111.179649 95.736510 
2112.144098 95.719561 
2113.108548 95.701143 
2114.072997 95.682489 
2115.037446 95.664553 
2116.001896 95.647705 
2116.966345 95.630097 
2117.930795 95.612371 
2118.895244 95.595698 
2119.859693 95.579058 
2120.824143 95.561173 
2121.788592 95.543786 
2122.753041 95.526836 
2123.717491 95.510045 
2124.681940 95.493355 
2125.646389 95.476182 
2126.610839 95.458941 
2127.575288 95.442241 
2128.539738 95.424986 
2129.504187 95.406364 
2130.468636 95.387181 
2131.433086 95.368260 
2132.397535 95.349564 
2133.361984 95.330968 
2134.326434 95.311785 
2135.290883 95.292910 
2136.255332 95.274409 
2137.219782 95.255470 
2138.184231 95.235640 
2139.148680 95.216340 
2140.113130 95.197219 
2141.077579 95.177029 
2142.042029 95.156091 
2143.006478 95.136288 
2143.970927 95.117057 
2144.935377 95.097218 
2145.899826 95.076259 
2146.864275 95.055259 
2147.828725 95.034572 
2148.793174 95.013692 
2149.757623 94.991988 
2150.722073 94.970678 
2151.686522 94.949755 
2152.650972 94.928234 
2153.615421 94.906004 
2154.579870 94.884685 
2155.544320 94.863800 
2156.508769 94.843162 
2157.473218 94.822125 
2158.437668 94.800569 
2159.402117 94.779246 
2160.366566 94.758475 
2161.331016 94.736918 
2162.295465 94.714287 
2163.259914 94.691949 
2164.224364 94.670577 
2165.188813 94.648699 
2166.153263 94.626157 
2167.117712 94.603255 
2168.082161 94.581629 
2169.046611 94.560855 
2170.011060 94.539177 
2170.975509 94.516742 
2171.939959 94.495641 
2172.904408 94.475297 
2173.868857 94.454784 
2174.833307 94.433849 
2175.797756 94.413863 
2176.762206 94.394060 
2177.726655 94.373193 
2178.691104 94.351348 
2179.655554 94.330084 
2180.620003 94.309257 
2181.584452 94.288349 
2182.548902 94.267522 
2183.513351 94.247571 
2184.477800 94.228138 
2185.442250 94.208842 
2186.406699 94.188986 
2187.371148 94.169827 
2188.335598 94.151548 
2189.300047 94.133450 
2190.264497 94.114628 
2191.228946 94.096018 
2192.193395 94.078257 
2193.157845 94.061284 
2194.122294 94.043319 
2195.086743 94.024409 
2196.051193 94.005756 
2197.015642 93.988156 
2197.980091 93.970199 
2198.944541 93.951587 
2199.908990 93.933156 
2200.873440 93.916251 
2201.837889 93.899358 
2202.802338 93.881442 
2203.766788 93.863162 
2204.731237 93.846049 
2205.695686 93.829627 
2206.660136 93.812299 
2207.624585 93.793989 
2208.589034 93.776588 
2209.553484 93.759261 
2210.517933 93.741235 
2211.482382 93.722390 
2212.446832 93.703717 
2213.411281 93.685456 
2214.375731 93.667455 
2215.340180 93.649437 
2216.304629 93.631458 
2217.269079 93.613731 
2218.233528 93.596599 
2219.197977 93.578965 
2220.162427 93.561502 
2221.126876 93.544380 
2222.091325 93.527228 
2223.055775 93.509548 
2224.020224 93.492207 
2224.984674 93.475278 
2225.949123 93.458455 
2226.913572 93.440573 
2227.878022 93.421948 
2228.842471 93.403467 
2229.806920 93.385402 
2230.771370 93.366526 
2231.735819 93.346607 
2232.700268 93.327067 
2233.664718 93.308178 
2234.629167 93.288549 
2235.593616 93.268469 
2236.558066 93.248231 
2237.522515 93.228407 
2238.486965 93.208796 
2239.451414 93.188733 
2240.415863 93.168193 
2241.380313 93.147916 
2242.344762 93.126962 
2243.309211 93.105471 
2244.273661 93.082857 
2245.238110 93.060793 
2246.202559 93.038891 
2247.167009 93.016148 
2248.131458 92.992190 
2249.095908 92.968322 
2250.060357 92.944637 
2251.024806 92.921250 
2251.989256 92.896959 
2252.953705 92.873530 
2253.918154 92.850863 
2254.882604 92.828700 
2255.847053 92.805767 
2256.811502 92.782952 
2257.775952 92.759974 
2258.740401 92.737404 
2259.704850 92.714198 
2260.669300 92.690693 
2261.633749 92.667140 
2262.598199 92.644753 
2263.562648 92.621808 
2264.527097 92.598290 
2265.491547 92.574836 
2266.455996 92.552763 
2267.420445 92.531154 
2268.384895 92.509900 
2269.349344 92.488666 
2270.313793 92.468741 
2271.278243 92.448600 
2272.242692 92.428472 
2273.207142 92.406838 
2274.171591 92.386178 
2275.136040 92.364809 
2276.100490 92.343150 
2277.064939 92.320680 
2278.029388 92.297843 
2278.993838 92.275165 
2279.958287 92.251273 
2280.922736 92.226702 
2281.887186 92.201383 
2282.851635 92.176032 
2283.816084 92.152558 
2284.780534 92.125318 
2285.744983 92.100135 
2286.709433 92.071737 
2287.673882 92.047082 
2288.638331 92.018183 
2289.602781 91.992623 
2290.567230 91.963949 
2291.531679 91.937678 
2292.496129 91.909494 
2293.460578 91.879977 
2294.425027 91.851570 
2295.389477 91.820572 
2296.353926 91.791349 
2297.318376 91.756205 
2298.282825 91.726317 
2299.247274 91.694225 
2300.211724 91.668513 
2301.176173 91.638789 
2302.140622 91.616188 
2303.105072 91.589705 
2304.069521 91.570094 
2305.033970 91.545952 
2305.998420 91.526325 
2306.962869 91.503496 
2307.927318 91.484655 
2308.891768 91.462825 
2309.856217 91.446211 
2310.820667 91.429024 
2311.785116 91.415910 
2312.749565 91.399951 
2313.714015 91.385572 
2314.678464 91.368056 
2315.642913 91.353533 
2316.607363 91.338573 
2317.571812 91.323604 
2318.536261 91.313004 
2319.500711 91.304587 
2320.465160 91.295172 
2321.429610 91.282744 
2322.394059 91.275004 
2323.358508 91.264427 
2324.322958 91.254478 
2325.287407 91.242806 
2326.251856 91.231320 
2327.216306 91.220394 
2328.180755 91.204383 
2329.145204 91.188565 
2330.109654 91.166446 
2331.074103 91.151872 
2332.038552 91.141986 
2333.003002 91.149687 
2333.967451 91.146471 
2334.931901 91.136713 
2335.896350 91.111994 
2336.860799 91.088794 
2337.825249 91.052586 
2338.789698 91.018783 
2339.754147 90.979213 
2340.718597 90.945992 
2341.683046 90.907853 
2342.647495 90.873614 
2343.611945 90.834930 
2344.576394 90.797903 
2345.540844 90.759075 
2346.505293 90.725456 
2347.469742 90.692091 
2348.434192 90.664998 
2349.398641 90.638900 
2350.363090 90.618627 
2351.327540 90.600780 
2352.291989 90.587103 
2353.256438 90.573217 
2354.220888 90.566857 
2355.185337 90.562814 
2356.149786 90.561030 
2357.114236 90.561215 
2358.078685 90.565931 
2359.043135 90.572038 
2360.007584 90.581169 
2360.972033 90.590736 
2361.936483 90.602924 
2362.900932 90.616799 
2363.865381 90.634196 
2364.829831 90.650709 
2365.794280 90.656841 
2366.758729 90.640347 
2367.723179 90.614853 
2368.687628 90.587856 
2369.652078 90.560267 
2370.616527 90.528118 
2371.580976 90.496292 
2372.545426 90.463616 
2373.509875 90.429911 
2374.474324 90.392317 
2375.438774 90.354406 
2376.403223 90.316662 
2377.367672 90.280381 
2378.332122 90.245011 
2379.296571 90.210466 
2380.261020 90.175412 
2381.225470 90.141816 
2382.189919 90.108502 
2383.154369 90.077714 
2384.118818 90.047932 
2385.083267 90.019998 
2386.047717 89.992834 
2387.012166 89.966896 
2387.976615 89.942625 
2388.941065 89.921323 
2389.905514 89.902193 
2390.869963 89.884669 
2391.834413 89.867442 
2392.798862 89.851244 
2393.763312 89.833927 
2394.727761 89.815145 
2395.692210 89.794326 
2396.656660 89.772475 
2397.621109 89.749745 
2398.585558 89.726929 
2399.550008 89.703063 
2400.514457 89.678588 
2401.478906 89.653736 
2402.443356 89.628993 
2403.407805 89.603900 
2404.372254 89.579592 
2405.336704 89.555682 
2406.301153 89.532119 
2407.265603 89.508299 
2408.230052 89.485205 
2409.194501 89.462502 
2410.158951 89.440322 
2411.123400 89.418220 
2412.087849 89.396763 
2413.052299 89.375656 
2414.016748 89.354595 
2414.981197 89.333216 
2415.945647 89.312317 
2416.910096 89.291229 
2417.874546 89.269829 
2418.838995 89.248365 
2419.803444 89.227459 
2420.767894 89.207026 
2421.732343 89.186522 
2422.696792 89.166359 
2423.661242 89.146333 
2424.625691 89.126093 
2425.590140 89.106492 
2426.554590 89.087118 
2427.519039 89.067438 
2428.483488 89.047570 
2429.447938 89.027983 
2430.412387 89.008471 
2431.376837 88.988192 
2432.341286 88.966619 
2433.305735 88.944905 
2434.270185 88.923381 
2435.234634 88.901796 
2436.199083 88.879654 
2437.163533 88.857079 
2438.127982 88.834318 
2439.092431 88.811375 
2440.056881 88.787728 
2441.021330 88.764060 
2441.985780 88.740645 
2442.950229 88.717417 
2443.914678 88.693990 
2444.879128 88.669857 
2445.843577 88.645656 
2446.808026 88.621559 
2447.772476 88.596636 
2448.736925 88.570781 
2449.701374 88.544054 
2450.665824 88.516962 
2451.630273 88.489750 
2452.594722 88.461830 
2453.559172 88.433120 
2454.523621 88.403886 
2455.488071 88.374439 
2456.452520 88.344360 
2457.416969 88.313757 
2458.381419 88.283396 
2459.345868 88.253308 
2460.310317 88.222621 
2461.274767 88.190940 
2462.239216 88.159081 
2463.203665 88.127256 
2464.168115 88.095142 
2465.132564 88.062991 
2466.097014 88.030606 
2467.061463 87.997349 
2468.025912 87.963232 
2468.990362 87.928676 
2469.954811 87.894336 
2470.919260 87.860281 
2471.883710 87.826220 
2472.848159 87.791788 
2473.812608 87.758033 
2474.777058 87.726042 
2475.741507 87.695521 
2476.705956 87.665695 
2477.670406 87.636697 
2478.634855 87.609509 
2479.599305 87.583957 
2480.563754 87.559383 
2481.528203 87.535927 
2482.492653 87.513994 
2483.457102 87.493457 
2484.421551 87.473908 
2485.386001 87.454943 
2486.350450 87.437100 
2487.314899 87.420508 
2488.279349 87.404919 
2489.243798 87.389561 
2490.208248 87.374589 
2491.172697 87.360341 
2492.137146 87.345991 
2493.101596 87.331495 
2494.066045 87.316826 
2495.030494 87.302054 
2495.994944 87.287320 
2496.959393 87.272024 
2497.923842 87.255939 
2498.888292 87.238913 
2499.852741 87.221498 
2500.817190 87.203982 
2501.781640 87.186317 
2502.746089 87.167794 
2503.710539 87.148712 
2504.674988 87.129666 
2505.639437 87.110163 
2506.603887 87.090843 
2507.568336 87.071963 
2508.532785 87.052911 
2509.497235 87.033829 
2510.461684 87.014648 
2511.426133 86.995711 
2512.390583 86.977482 
2513.355032 86.959592 
2514.319482 86.941541 
2515.283931 86.923833 
2516.248380 86.906881 
2517.212830 86.890220 
2518.177279 86.873412 
2519.141728 86.856493 
2520.106178 86.839723 
2521.070627 86.823223 
2522.035076 86.806485 
2522.999526 86.789630 
2523.963975 86.772797 
2524.928424 86.755670 
2525.892874 86.738141 
2526.857323 86.720091 
2527.821773 86.701581 
2528.786222 86.682992 
2529.750671 86.664148 
2530.715121 86.645177 
2531.679570 86.626413 
2532.644019 86.607856 
2533.608469 86.588978 
2534.572918 86.569675 
2535.537367 86.549966 
2536.501817 86.530753 
2537.466266 86.511509 
2538.430716 86.491574 
2539.395165 86.471825 
2540.359614 86.452216 
2541.324064 86.432269 
2542.288513 86.411992 
2543.252962 86.390708 
2544.217412 86.369199 
2545.181861 86.348227 
2546.146310 86.327133 
2547.110760 86.305600 
2548.075209 86.284492 
2549.039658 86.263876 
2550.004108 86.242955 
2550.968557 86.221770 
2551.933007 86.200638 
2552.897456 86.180174 
2553.861905 86.160031 
2554.826355 86.138837 
2555.790804 86.116890 
2556.755253 86.094899 
2557.719703 86.073261 
2558.684152 86.051178 
2559.648601 86.028423 
2560.613051 86.005313 
2561.577500 85.982373 
2562.541950 85.959437 
2563.506399 85.936366 
2564.470848 85.913495 
2565.435298 85.890590 
2566.399747 85.867346 
2567.364196 85.844109 
2568.328646 85.821146 
2569.293095 85.798888 
2570.257544 85.776393 
2571.221994 85.753250 
2572.186443 85.729829 
2573.150892 85.706195 
2574.115342 85.682572 
2575.079791 85.658856 
2576.044241 85.634304 
2577.008690 85.609846 
2577.973139 85.586514 
2578.937589 85.563595 
2579.902038 85.540027 
2580.866487 85.516053 
2581.830937 85.492071 
2582.795386 85.468382 
2583.759835 85.444352 
2584.724285 85.420107 
2585.688734 85.396477 
2586.653184 85.373026 
2587.617633 85.349058 
2588.582082 85.325065 
2589.546532 85.301180 
2590.510981 85.277839 
2591.475430 85.254098 
2592.439880 85.230271 
2593.404329 85.207020 
2594.368778 85.183661 
2595.333228 85.159867 
2596.297677 85.136432 
2597.262126 85.113507 
2598.226576 85.090858 
2599.191025 85.068312 
2600.155475 85.045946 
2601.119924 85.023569 
2602.084373 85.001379 
2603.048823 84.978969 
2604.013272 84.956594 
2604.977721 84.934781 
2605.942171 84.913242 
2606.906620 84.891678 
2607.871069 84.870117 
2608.835519 84.848712 
2609.799968 84.827743 
2610.764418 84.807171 
2611.728867 84.786037 
2612.693316 84.764164 
2613.657766 84.742599 
2614.622215 84.721371 
2615.586664 84.699752 
2616.551114 84.676976 
2617.515563 84.654477 
2618.480012 84.632655 
2619.444462 84.610376 
2620.408911 84.587458 
2621.373360 84.564757 
2622.337810 84.542574 
2623.302259 84.520780 
2624.266709 84.498223 
2625.231158 84.475305 
2626.195607 84.452308 
2627.160057 84.429714 
2628.124506 84.407509 
2629.088955 84.385445 
2630.053405 84.363327 
2631.017854 84.341288 
2631.982303 84.318852 
2632.946753 84.296109 
2633.911202 84.273346 
2634.875652 84.251100 
2635.840101 84.228696 
2636.804550 84.205748 
2637.769000 84.182655 
2638.733449 84.159794 
2639.697898 84.137362 
2640.662348 84.115094 
2641.626797 84.092544 
2642.591246 84.070390 
2643.555696 84.048573 
2644.520145 84.026354 
2645.484594 84.004244 
2646.449044 83.982082 
2647.413493 83.959435 
2648.377943 83.936442 
2649.342392 83.913471 
2650.306841 83.891303 
2651.271291 83.869322 
2652.235740 83.846859 
2653.200189 83.823971 
2654.164639 83.801076 
2655.129088 83.778231 
2656.093537 83.755155 
2657.057987 83.731553 
2658.022436 83.708043 
2658.986886 83.685558 
2659.951335 83.663851 
2660.915784 83.641310 
2661.880234 83.618103 
2662.844683 83.594926 
2663.809132 83.572195 
2664.773582 83.549433 
2665.738031 83.526538 
2666.702480 83.503457 
2667.666930 83.480338 
2668.631379 83.456993 
2669.595828 83.433534 
2670.560278 83.410063 
2671.524727 83.386749 
2672.489177 83.363741 
2673.453626 83.340523 
2674.418075 83.316974 
2675.382525 83.293900 
2676.346974 83.270555 
2677.311423 83.247045 
2678.275873 83.223491 
2679.240322 83.199461 
2680.204771 83.175707 
2681.169221 83.152381 
2682.133670 83.128686 
2683.098120 83.105211 
2684.062569 83.081619 
2685.027018 83.057511 
2685.991468 83.033146 
2686.955917 83.008878 
2687.920366 82.984771 
2688.884816 82.960715 
2689.849265 82.936157 
2690.813714 82.911814 
2691.778164 82.888100 
2692.742613 82.864123 
2693.707062 82.839482 
2694.671512 82.814883 
2695.635961 82.790674 
2696.600411 82.766500 
2697.564860 82.741865 
2698.529309 82.716888 
2699.493759 82.691928 
2700.458208 82.667099 
2701.422657 82.642186 
2702.387107 82.617203 
2703.351556 82.592203 
2704.316005 82.567541 
2705.280455 82.542865 
2706.244904 82.517635 
2707.209354 82.492304 
2708.173803 82.467649 
2709.138252 82.443023 
2710.102702 82.418569 
2711.067151 82.393696 
2712.031600 82.369082 
2712.996050 82.344987 
2713.960499 82.320747 
2714.924948 82.296580 
2715.889398 82.272887 
2716.853847 82.248656 
2717.818296 82.224218 
2718.782746 82.199791 
2719.747195 82.175432 
2720.711645 82.151498 
2721.676094 82.127621 
2722.640543 82.103197 
2723.604993 82.079232 
2724.569442 82.055700 
2725.533891 82.032209 
2726.498341 82.008259 
2727.462790 81.984112 
2728.427239 81.959574 
2729.391689 81.934045 
2730.356138 81.908256 
2731.320588 81.883216 
2732.285037 81.858761 
2733.249486 81.834696 
2734.213936 81.810843 
2735.178385 81.787035 
2736.142834 81.763211 
2737.107284 81.739221 
2738.071733 81.714663 
2739.036182 81.690568 
2740.000632 81.666844 
2740.965081 81.642923 
2741.929530 81.618849 
2742.893980 81.594914 
2743.858429 81.570643 
2744.822879 81.546911 
2745.787328 81.523431 
2746.751777 81.499963 
2747.716227 81.476407 
2748.680676 81.452664 
2749.645125 81.428987 
2750.609575 81.405756 
2751.574024 81.382563 
2752.538473 81.359621 
2753.502923 81.336877 
2754.467372 81.314057 
2755.431822 81.290711 
2756.396271 81.267445 
2757.360720 81.244297 
2758.325170 81.220888 
2759.289619 81.197289 
2760.254068 81.173807 
2761.218518 81.150126 
2762.182967 81.126699 
2763.147416 81.103981 
2764.111866 81.081781 
2765.076315 81.059488 
2766.040764 81.036689 
2767.005214 81.013073 
2767.969663 80.989287 
2768.934113 80.965340 
2769.898562 80.941117 
2770.863011 80.916762 
2771.827461 80.892861 
2772.791910 80.868476 
2773.756359 80.844102 
2774.720809 80.820563 
2775.685258 80.797113 
2776.649707 80.773137 
2777.614157 80.748915 
2778.578606 80.724702 
2779.543056 80.700508 
2780.507505 80.675747 
2781.471954 80.651263 
2782.436404 80.627003 
2783.400853 80.602570 
2784.365302 80.577885 
2785.329752 80.553110 
2786.294201 80.527914 
2787.258650 80.502396 
2788.223100 80.476516 
2789.187549 80.451101 
2790.151998 80.425663 
2791.116448 80.399909 
2792.080897 80.373819 
2793.045347 80.347371 
2794.009796 80.320921 
2794.974245 80.295156 
2795.938695 80.269144 
2796.903144 80.242585 
2797.867593 80.215578 
2798.832043 80.188304 
2799.796492 80.160546 
2800.760941 80.132801 
2801.725391 80.104971 
2802.689840 80.076989 
2803.654290 80.048837 
2804.618739 80.020529 
2805.583188 79.992092 
2806.547638 79.964260 
2807.512087 79.936156 
2808.476536 79.907272 
2809.440986 79.878657 
2810.405435 79.850547 
2811.369884 79.822437 
2812.334334 79.793987 
2813.298783 79.764999 
2814.263232 79.736528 
2815.227682 79.707663 
2816.192131 79.678679 
2817.156581 79.649315 
2818.121030 79.619556 
2819.085479 79.589359 
2820.049929 79.559067 
2821.014378 79.528566 
2821.978827 79.497955 
2822.943277 79.466867 
2823.907726 79.435676 
2824.872175 79.404529 
2825.836625 79.374025 
2826.801074 79.344012 
2827.765524 79.314017 
2828.729973 79.282345 
2829.694422 79.249273 
2830.658872 79.215737 
2831.623321 79.182453 
2832.587770 79.148654 
2833.552220 79.114711 
2834.516669 79.080540 
2835.481118 79.045681 
2836.445568 79.009680 
2837.410017 78.972401 
2838.374466 78.933817 
2839.338916 78.893906 
2840.303365 78.851889 
2841.267815 78.808150 
2842.232264 78.763275 
2843.196713 78.717873 
2844.161163 78.672512 
2845.125612 78.627630 
2846.090061 78.583564 
2847.054511 78.541081 
2848.018960 78.499987 
2848.983409 78.461112 
2849.947859 78.423719 
2850.912308 78.388723 
2851.876758 78.356591 
2852.841207 78.327238 
2853.805656 78.300021 
2854.770106 78.275212 
2855.734555 78.252584 
2856.699004 78.232461 
2857.663454 78.214626 
2858.627903 78.199025 
2859.592352 78.185035 
2860.556802 78.172543 
2861.521251 78.161012 
2862.485700 78.151084 
2863.450150 78.142372 
2864.414599 78.134527 
2865.379049 78.126781 
2866.343498 78.118708 
2867.307947 78.110038 
2868.272397 78.100204 
2869.236846 78.088391 
2870.201295 78.074872 
2871.165745 78.059668 
2872.130194 78.042675 
2873.094643 78.024217 
2874.059093 78.005152 
2875.023542 77.985949 
2875.987992 77.967253 
2876.952441 77.948041 
2877.916890 77.927937 
2878.881340 77.907714 
2879.845789 77.887559 
2880.810238 77.867005 
2881.774688 77.845978 
2882.739137 77.824168 
2883.703586 77.802717 
2884.668036 77.781322 
2885.632485 77.758738 
2886.596934 77.734967 
2887.561384 77.710990 
2888.525833 77.686492 
2889.490283 77.661401 
2890.454732 77.635594 
2891.419181 77.609393 
2892.383631 77.582654 
2893.348080 77.555395 
2894.312529 77.526780 
2895.276979 77.497404 
2896.241428 77.468064 
2897.205877 77.438272 
2898.170327 77.406691 
2899.134776 77.374079 
2900.099226 77.341502 
2901.063675 77.308251 
2902.028124 77.273388 
2902.992574 77.237385 
2903.957023 77.200663 
2904.921472 77.163081 
2905.885922 77.123922 
2906.850371 77.083201 
2907.814820 77.040803 
2908.779270 76.996622 
2909.743719 76.949927 
2910.708168 76.901448 
2911.672618 76.852052 
2912.637067 76.802169 
2913.601517 76.750520 
2914.565966 76.697612 
2915.530415 76.645057 
2916.494865 76.594543 
2917.459314 76.545426 
2918.423763 76.497615 
2919.388213 76.452590 
2920.352662 76.411436 
2921.317111 76.373643 
2922.281561 76.339715 
2923.246010 76.310029 
2924.210460 76.284732 
2925.174909 76.264157 
2926.139358 76.248565 
2927.103808 76.236948 
2928.068257 76.229624 
2929.032706 76.226425 
2929.997156 76.225982 
2930.961605 76.227480 
2931.926054 76.231534 
2932.890504 76.238356 
2933.854953 76.246899 
2934.819402 76.256707 
2935.783852 76.267889 
2936.748301 76.278902 
2937.712751 76.288475 
2938.677200 76.295922 
2939.641649 76.301631 
2940.606099 76.305112 
2941.570548 76.306343 
2942.534997 76.304319 
2943.499447 76.299936 
2944.463896 76.293431 
2945.428345 76.284073 
2946.392795 76.271151 
2947.357244 76.256247 
2948.321694 76.240246 
2949.286143 76.223494 
2950.250592 76.205394 
2951.215042 76.186705 
2952.179491 76.167448 
2953.143940 76.148572 
2954.108390 76.129926 
2955.072839 76.111662 
2956.037288 76.093536 
2957.001738 76.076262 
2957.966187 76.060360 
2958.930636 76.044538 
2959.895086 76.028417 
2960.859535 76.013522 
2961.823985 75.999839 
2962.788434 75.986464 
2963.752883 75.972775 
2964.717333 75.959739 
2965.681782 75.948383 
2966.646231 75.937651 
2967.610681 75.926377 
2968.575130 75.914400 
2969.539579 75.902085 
2970.504029 75.890430 
2971.468478 75.878055 
2972.432928 75.864897 
2973.397377 75.851952 
2974.361826 75.839609 
2975.326276 75.826698 
2976.290725 75.813425 
2977.255174 75.798770 
2978.219624 75.782222 
2979.184073 75.764584 
2980.148522 75.746646 
2981.112972 75.728148 
2982.077421 75.709205 
2983.041870 75.689444 
2984.006320 75.669136 
2984.970769 75.648612 
2985.935219 75.629115 
2986.899668 75.609390 
2987.864117 75.588279 
2988.828567 75.566023 
2989.793016 75.543866 
2990.757465 75.521776 
2991.721915 75.499310 
2992.686364 75.477266 
2993.650813 75.455424 
2994.615263 75.433052 
2995.579712 75.409704 
2996.544162 75.383732 
2997.508611 75.357524 
2998.473060 75.332151 
2999.437510 75.305994 
3000.401959 75.279214 
3001.366408 75.253421 
3002.330858 75.228778 
3003.295307 75.204328 
3004.259756 75.178315 
3005.224206 75.152714 
3006.188655 75.128238 
3007.153104 75.103984 
3008.117554 75.079007 
3009.082003 75.052745 
3010.046453 75.025114 
3011.010902 74.998049 
3011.975351 74.971665 
3012.939801 74.946398 
3013.904250 74.921886 
3014.868699 74.896430 
3015.833149 74.869129 
3016.797598 74.842610 
3017.762047 74.816899 
3018.726497 74.791115 
3019.690946 74.765182 
3020.655396 74.738469 
3021.619845 74.711772 
3022.584294 74.686104 
3023.548744 74.660979 
3024.513193 74.635673 
3025.477642 74.610115 
3026.442092 74.584282 
3027.406541 74.558334 
3028.370990 74.531820 
3029.335440 74.504484 
3030.299889 74.479370 
3031.264338 74.455027 
3032.228788 74.428846 
3033.193237 74.402024 
3034.157687 74.376531 
3035.122136 74.351878 
3036.086585 74.327094 
3037.051035 74.301595 
3038.015484 74.277311 
3038.979933 74.254070 
3039.944383 74.229080 
3040.908832 74.202306 
3041.873281 74.175924 
3042.837731 74.150353 
3043.802180 74.125629 
3044.766630 74.100020 
3045.731079 74.074859 
3046.695528 74.049974 
3047.659978 74.022920 
3048.624427 73.993853 
3049.588876 73.967497 
3050.553326 73.940440 
3051.517775 73.913051 
3052.482224 73.887481 
3053.446674 73.861760 
3054.411123 73.836257 
3055.375572 73.811506 
3056.340022 73.786989 
3057.304471 73.762259 
3058.268921 73.737130 
3059.233370 73.711996 
3060.197819 73.687530 
3061.162269 73.663759 
3062.126718 73.640184 
3063.091167 73.616738 
3064.055617 73.592524 
3065.020066 73.568174 
3065.984515 73.543900 
3066.948965 73.520822 
3067.913414 73.498509 
3068.877864 73.476487 
3069.842313 73.454370 
3070.806762 73.432635 
3071.771212 73.410103 
3072.735661 73.385917 
3073.700110 73.362208 
3074.664560 73.340260 
3075.629009 73.318529 
3076.593458 73.296574 
3077.557908 73.274077 
3078.522357 73.252557 
3079.486806 73.228746 
3080.451256 73.201387 
3081.415705 73.173958 
3082.380155 73.148722 
3083.344604 73.123013 
3084.309053 73.098040 
3085.273503 73.072553 
3086.237952 73.045375 
3087.202401 73.017207 
3088.166851 72.989401 
3089.131300 72.961600 
3090.095749 72.932554 
3091.060199 72.902277 
3092.024648 72.873085 
3092.989098 72.845451 
3093.953547 72.818215 
3094.917996 72.790583 
3095.882446 72.762000 
3096.846895 72.733167 
3097.811344 72.705384 
3098.775794 72.676998 
3099.740243 72.648763 
3100.704692 72.622246 
3101.669142 72.597340 
3102.633591 72.571285 
3103.598040 72.545462 
3104.562490 72.522089 
3105.526939 72.500459 
3106.491389 72.476979 
3107.455838 72.453665 
3108.420287 72.431423 
3109.384737 72.408450 
3110.349186 72.382639 
3111.313635 72.354853 
3112.278085 72.325505 
3113.242534 72.297612 
3114.206983 72.272365 
3115.171433 72.247952 
3116.135882 72.222743 
3117.100332 72.194565 
3118.064781 72.164970 
3119.029230 72.135839 
3119.993680 72.105584 
3120.958129 72.075165 
3121.922578 72.044810 
3122.887028 72.015103 
3123.851477 71.986796 
3124.815926 71.960327 
3125.780376 71.933841 
3126.744825 71.906324 
3127.709274 71.878313 
3128.673724 71.850010 
3129.638173 71.821728 
3130.602623 71.793629 
3131.567072 71.764812 
3132.531521 71.736668 
3133.495971 71.709744 
3134.460420 71.682319 
3135.424869 71.653671 
3136.389319 71.627756 
3137.353768 71.604056 
3138.318217 71.579095 
3139.282667 71.552257 
3140.247116 71.527378 
3141.211566 71.502694 
3142.176015 71.476016 
3143.140464 71.448125 
3144.104914 71.421537 
3145.069363 71.396804 
3146.033812 71.372448 
3146.998262 71.347437 
3147.962711 71.320753 
3148.927160 71.291763 
3149.891610 71.261999 
3150.856059 71.233520 
3151.820508 71.205196 
3152.784958 71.176136 
3153.749407 71.148351 
3154.713857 71.122157 
3155.678306 71.096595 
3156.642755 71.070411 
3157.607205 71.043586 
3158.571654 71.016057 
3159.536103 70.988743 
3160.500553 70.962814 
3161.465002 70.935450 
3162.429451 70.905303 
3163.393901 70.875876 
3164.358350 70.846820 
3165.322800 70.818401 
3166.287249 70.789849 
3167.251698 70.762060 
3168.216148 70.735028 
3169.180597 70.708720 
3170.145046 70.682703 
3171.109496 70.656684 
3172.073945 70.630291 
3173.038394 70.604117 
3174.002844 70.577723 
3174.967293 70.551675 
3175.931742 70.525994 
3176.896192 70.500573 
3177.860641 70.474357 
3178.825091 70.447816 
3179.789540 70.421296 
3180.753989 70.395425 
3181.718439 70.368563 
3182.682888 70.341459 
3183.647337 70.314269 
3184.611787 70.286854 
3185.576236 70.259635 
3186.540685 70.233389 
3187.505135 70.206715 
3188.469584 70.178976 
3189.434034 70.151407 
3190.398483 70.125079 
3191.362932 70.099652 
3192.327382 70.075064 
3193.291831 70.048318 
3194.256280 70.018381 
3195.220730 69.989524 
3196.185179 69.963636 
3197.149628 69.937797 
3198.114078 69.910402 
3199.078527 69.882303 
3200.042976 69.854466 
3201.007426 69.826135 
3201.971875 69.799471 
3202.936325 69.773089 
3203.900774 69.745782 
3204.865223 69.718732 
3205.829673 69.692288 
3206.794122 69.665911 
3207.758571 69.639349 
3208.723021 69.611482 
3209.687470 69.583649 
3210.651919 69.556306 
3211.616369 69.529311 
3212.580818 69.502229 
3213.545268 69.473819 
3214.509717 69.443159 
3215.474166 69.413773 
3216.438616 69.384939 
3217.403065 69.356765 
3218.367514 69.330739 
3219.331964 69.305864 
3220.296413 69.279307 
3221.260862 69.252704 
3222.225312 69.228066 
3223.189761 69.203903 
3224.154210 69.178349 
3225.118660 69.152158 
3226.083109 69.124783 
3227.047559 69.099438 
3228.012008 69.074900 
3228.976457 69.045794 
3229.940907 69.015108 
3230.905356 68.986159 
3231.869805 68.959592 
3232.834255 68.934121 
3233.798704 68.908723 
3234.763153 68.883442 
3235.727603 68.856511 
3236.692052 68.830363 
3237.656502 68.802911 
3238.620951 68.773893 
3239.585400 68.746825 
3240.549850 68.719833 
3241.514299 68.692004 
3242.478748 68.665762 
3243.443198 68.639732 
3244.407647 68.612079 
3245.372096 68.584011 
3246.336546 68.555542 
3247.300995 68.527486 
3248.265444 68.500607 
3249.229894 68.473409 
3250.194343 68.447002 
3251.158793 68.421024 
3252.123242 68.393353 
3253.087691 68.363893 
3254.052141 68.335742 
3255.016590 68.309697 
3255.981039 68.285430 
3256.945489 68.260483 
3257.909938 68.234125 
3258.874387 68.209515 
3259.838837 68.185203 
3260.803286 68.157685 
3261.767736 68.130500 
3262.732185 68.107818 
3263.696634 68.086818 
3264.661084 68.064265 
3265.625533 68.041876 
3266.589982 68.018647 
3267.554432 67.993866 
3268.518881 67.968296 
3269.483330 67.942881 
3270.447780 67.915947 
3271.412229 67.890245 
3272.376678 67.865179 
3273.341128 67.837913 
3274.305577 67.810428 
3275.270027 67.783346 
3276.234476 67.754843 
3277.198925 67.725423 
3278.163375 67.696975 
3279.127824 67.669303 
3280.092273 67.642736 
3281.056723 67.616210 
3282.021172 67.588122 
3282.985621 67.560892 
3283.950071 67.534149 
3284.914520 67.506726 
3285.878970 67.479294 
3286.843419 67.452918 
3287.807868 67.427573 
3288.772318 67.402473 
3289.736767 67.375601 
3290.701216 67.349918 
3291.665666 67.327480 
3292.630115 67.303457 
3293.594564 67.278987 
3294.559014 67.256807 
3295.523463 67.234305 
3296.487912 67.209671 
3297.452362 67.182843 
3298.416811 67.155685 
3299.381261 67.127388 
3300.345710 67.098111 
3301.310159 67.067657 
3302.274609 67.036363 
3303.239058 67.003809 
3304.203507 66.969973 
3305.167957 66.934596 
3306.132406 66.900082 
3307.096855 66.865611 
3308.061305 66.830361 
3309.025754 66.795982 
3309.990204 66.763814 
3310.954653 66.732215 
3311.919102 66.700963 
3312.883552 66.669683 
3313.848001 66.636316 
3314.812450 66.602142 
3315.776900 66.569702 
3316.741349 66.536485 
3317.705798 66.501953 
3318.670248 66.466154 
3319.634697 66.431271 
3320.599146 66.395926 
3321.563596 66.361823 
3322.528045 66.330851 
3323.492495 66.301707 
3324.456944 66.272289 
3325.421393 66.242669 
3326.385843 66.214851 
3327.350292 66.187578 
3328.314741 66.158890 
3329.279191 66.128388 
3330.243640 66.096811 
3331.208089 66.065369 
3332.172539 66.032191 
3333.136988 65.997591 
3334.101438 65.963176 
3335.065887 65.931113 
3336.030336 65.900582 
3336.994786 65.870135 
3337.959235 65.839570 
3338.923684 65.809415 
3339.888134 65.777409 
3340.852583 65.744961 
3341.817032 65.713148 
3342.781482 65.681501 
3343.745931 65.649234 
3344.710380 65.618716 
3345.674830 65.587272 
3346.639279 65.554410 
3347.603729 65.521101 
3348.568178 65.485846 
3349.532627 65.447653 
3350.497077 65.409425 
3351.461526 65.370538 
3352.425975 65.333043 
3353.390425 65.298031 
3354.354874 65.268032 
3355.319323 65.240703 
3356.283773 65.212563 
3357.248222 65.183443 
3358.212672 65.154074 
3359.177121 65.124909 
3360.141570 65.095948 
3361.106020 65.066216 
3362.070469 65.034824 
3363.034918 65.002065 
3363.999368 64.969935 
3364.963817 64.938979 
3365.928266 64.911143 
3366.892716 64.885003 
3367.857165 64.858628 
3368.821614 64.829575 
3369.786064 64.797572 
3370.750513 64.763804 
3371.714963 64.728840 
3372.679412 64.692332 
3373.643861 64.656867 
3374.608311 64.624051 
3375.572760 64.594876 
3376.537209 64.563859 
3377.501659 64.531025 
3378.466108 64.498477 
3379.430557 64.467813 
3380.395007 64.436257 
3381.359456 64.401152 
3382.323906 64.367494 
3383.288355 64.338324 
3384.252804 64.311542 
3385.217254 64.288471 
3386.181703 64.269189 
3387.146152 64.250406 
3388.110602 64.230041 
3389.075051 64.209548 
3390.039500 64.188064 
3391.003950 64.165696 
3391.968399 64.144077 
3392.932848 64.124269 
3393.897298 64.104466 
3394.861747 64.083460 
3395.826197 64.062630 
3396.790646 64.043598 
3397.755095 64.025451 
3398.719545 64.007838 
3399.683994 63.988076 
3400.648443 63.966407 
3401.612893 63.943897 
3402.577342 63.922948 
3403.541791 63.902577 
3404.506241 63.878927 
3405.470690 63.854456 
3406.435140 63.831241 
3407.399589 63.808264 
3408.364038 63.784716 
3409.328488 63.757937 
3410.292937 63.732555 
3411.257386 63.709714 
3412.221836 63.685311 
3413.186285 63.659913 
3414.150734 63.637025 
3415.115184 63.618668 
3416.079633 63.602421 
3417.044082 63.586083 
3418.008532 63.571461 
3418.972981 63.558220 
3419.937431 63.545518 
3420.901880 63.534796 
3421.866329 63.526309 
3422.830779 63.517329 
3423.795228 63.509483 
3424.759677 63.504836 
3425.724127 63.501096 
3426.688576 63.492361 
3427.653025 63.483975 
3428.617475 63.479433 
3429.581924 63.480435 
3430.546374 63.476020 
3431.510823 63.461173 
3432.475272 63.448666 
3433.439722 63.439236 
3434.404171 63.430636 
3435.368620 63.421118 
3436.333070 63.408465 
3437.297519 63.394307 
3438.261968 63.383103 
3439.226418 63.372346 
3440.190867 63.361318 
3441.155316 63.350735 
3442.119766 63.339108 
3443.084215 63.329316 
3444.048665 63.323527 
3445.013114 63.319785 
3445.977563 63.315514 
3446.942013 63.308559 
3447.906462 63.301998 
3448.870911 63.297650 
3449.835361 63.295682 
3450.799810 63.294579 
3451.764259 63.294701 
3452.728709 63.299426 
3453.693158 63.307630 
3454.657608 63.316423 
3455.622057 63.325380 
3456.586506 63.334843 
3457.550956 63.343991 
3458.515405 63.348598 
3459.479854 63.349625 
3460.444304 63.354566 
3461.408753 63.358811 
3462.373202 63.361347 
3463.337652 63.360447 
3464.302101 63.362900 
3465.266550 63.373123 
3466.231000 63.375279 
3467.195449 63.374577 
3468.159899 63.375438 
3469.124348 63.375960 
3470.088797 63.379604 
3471.053247 63.385298 
3472.017696 63.385467 
3472.982145 63.383955 
3473.946595 63.385116 
3474.911044 63.386434 
3475.875493 63.389693 
3476.839943 63.393251 
3477.804392 63.395580 
3478.768842 63.396268 
3479.733291 63.395764 
3480.697740 63.395530 
3481.662190 63.397709 
3482.626639 63.403023 
3483.591088 63.409776 
3484.555538 63.421905 
3485.519987 63.439023 
3486.484436 63.450871 
3487.448886 63.452594 
3488.413335 63.452509 
3489.377784 63.454231 
3490.342234 63.458418 
3491.306683 63.466417 
3492.271133 63.478647 
3493.235582 63.482756 
3494.200031 63.483273 
3495.164481 63.487601 
3496.128930 63.491274 
3497.093379 63.492782 
3498.057829 63.492311 
3499.022278 63.492244 
3499.986727 63.499513 
3500.951177 63.510360 
3501.915626 63.519930 
3502.880076 63.528521 
3503.844525 63.535138 
3504.808974 63.543677 
3505.773424 63.558829 
3506.737873 63.569306 
3507.702322 63.573224 
3508.666772 63.581192 
3509.631221 63.593682 
3510.595670 63.605223 
3511.560120 63.610477 
3512.524569 63.610680 
3513.489018 63.610910 
3514.453468 63.617898 
3515.417917 63.623956 
3516.382367 63.630008 
3517.346816 63.636152 
3518.311265 63.643431 
3519.275715 63.647241 
3520.240164 63.642211 
3521.204613 63.642696 
3522.169063 63.652995 
3523.133512 63.664227 
3524.097961 63.673328 
3525.062411 63.677392 
3526.026860 63.678192 
3526.991310 63.687058 
3527.955759 63.701820 
3528.920208 63.710784 
3529.884658 63.722495 
3530.849107 63.728175 
3531.813556 63.730520 
3532.778006 63.741356 
3533.742455 63.759388 
3534.706904 63.783915 
3535.671354 63.800546 
3536.635803 63.809499 
3537.600252 63.821949 
3538.564702 63.831363 
3539.529151 63.839188 
3540.493601 63.850786 
3541.458050 63.867484 
3542.422499 63.886094 
3543.386949 63.897213 
3544.351398 63.898278 
3545.315847 63.906833 
3546.280297 63.921766 
3547.244746 63.938299 
3548.209195 63.964733 
3549.173645 64.004823 
3550.138094 64.016418 
3551.102544 64.007610 
3552.066993 63.972173 
3553.031442 63.945792 
3553.995892 63.947686 
3554.960341 63.957769 
3555.924790 63.969621 
3556.889240 63.985126 
3557.853689 64.000368 
3558.818138 64.012781 
3559.782588 64.024671 
3560.747037 64.030825 
3561.711486 64.033051 
3562.675936 64.042983 
3563.640385 64.045119 
3564.604835 64.052718 
3565.569284 64.075857 
3566.533733 64.096614 
3567.498183 64.108364 
3568.462632 64.121089 
3569.427081 64.152231 
3570.391531 64.172025 
3571.355980 64.175155 
3572.320429 64.163047 
3573.284879 64.146056 
3574.249328 64.152122 
3575.213778 64.170636 
3576.178227 64.187751 
3577.142676 64.191529 
3578.107126 64.207398 
3579.071575 64.205871 
3580.036024 64.188242 
3581.000474 64.179429 
3581.964923 64.152083 
3582.929372 64.095032 
3583.893822 64.050250 
3584.858271 64.006824 
3585.822720 63.994394 
3586.787170 63.983986 
3587.751619 63.963851 
3588.716069 63.951925 
3589.680518 63.944765 
3590.644967 63.914242 
3591.609417 63.870000 
3592.573866 63.806350 
3593.538315 63.692264 
3594.502765 63.586458 
3595.467214 63.473926 
3596.431663 63.294840 
3597.396113 63.094592 
3598.360562 62.886193 
3599.325012 62.666495 
3600.289461 62.480052 
3601.253910 62.304836 
3602.218360 62.118539 
3603.182809 61.908578 
3604.147258 61.716528 
3605.111708 61.584560 
3606.076157 61.517663 
3607.040606 61.503471 
3608.005056 61.513447 
3608.969505 61.552684 
3609.933954 61.616119 
3610.898404 61.739558 
3611.862853 61.885958 
3612.827303 61.979408 
3613.791752 62.086295 
3614.756201 62.250933 
3615.720651 62.468440 
3616.685100 62.714203 
3617.649549 62.946626 
3618.613999 63.198243 
3619.578448 63.474312 
3620.542897 63.757942 
3621.507347 64.031793 
3622.471796 64.277720 
3623.436246 64.486520 
3624.400695 64.674954 
3625.365144 64.827928 
3626.329594 64.942555 
3627.294043 65.055077 
3628.258492 65.121537 
3629.222942 65.152644 
3630.187391 65.202435 
3631.151840 65.212910 
3632.116290 65.224178 
3633.080739 65.237862 
3634.045188 65.199283 
3635.009638 65.129690 
3635.974087 65.088975 
3636.938537 65.091277 
3637.902986 65.133633 
3638.867435 65.184846 
3639.831885 65.201294 
3640.796334 65.191193 
3641.760783 65.201443 
3642.725233 65.209023 
3643.689682 65.206270 
3644.654131 65.162659 
3645.618581 65.085150 
3646.583030 65.083954 
3647.547480 65.130709 
3648.511929 65.158135 
3649.476378 65.160698 
3650.440828 65.156570 
3651.405277 65.191605 
3652.369726 65.227253 
3653.334176 65.236651 
3654.298625 65.196331 
3655.263074 65.139078 
3656.227524 65.137497 
3657.191973 65.179331 
3658.156422 65.235824 
3659.120872 65.185770 
3660.085321 65.092437 
3661.049771 65.048504 
3662.014220 65.032735 
3662.978669 64.983380 
3663.943119 64.892365 
3664.907568 64.839746 
3665.872017 64.791159 
3666.836467 64.744227 
3667.800916 64.716242 
3668.765365 64.723443 
3669.729815 64.738441 
3670.694264 64.762116 
3671.658714 64.756136 
3672.623163 64.667592 
3673.587612 64.642712 
3674.552062 64.647449 
3675.516511 64.609709 
3676.480960 64.595924 
3677.445410 64.601046 
3678.409859 64.613734 
3679.374308 64.632276 
3680.338758 64.650345 
3681.303207 64.668187 
3682.267656 64.691831 
3683.232106 64.721187 
3684.196555 64.752371 
3685.161005 64.732301 
3686.125454 64.668260 
3687.089903 64.622516 
3688.054353 64.633642 
3689.018802 64.680907 
3689.983251 64.688837 
3690.947701 64.645984 
3691.912150 64.558970 
3692.876599 64.529962 
3693.841049 64.552415 
3694.805498 64.579082 
3695.769948 64.519444 
3696.734397 64.441296 
3697.698846 64.427356 
3698.663296 64.419618 
3699.627745 64.408566 
3700.592194 64.404977 
3701.556644 64.411255 
3702.521093 64.406721 
3703.485542 64.379292 
3704.449992 64.338777 
3705.414441 64.294659 
3706.378890 64.273486 
3707.343340 64.234194 
3708.307789 64.215483 
3709.272239 64.233356 
3710.236688 64.220066 
3711.201137 64.185918 
3712.165587 64.165820 
3713.130036 64.156693 
3714.094485 64.168324 
3715.058935 64.185024 
3716.023384 64.149314 
3716.987833 64.123980 
3717.952283 64.111214 
3718.916732 64.057935 
3719.881182 64.020930 
3720.845631 63.977506 
3721.810080 63.937331 
3722.774530 63.911377 
3723.738979 63.912170 
3724.703428 63.892388 
3725.667878 63.846084 
3726.632327 63.856161 
3727.596776 63.881552 
3728.561226 63.713171 
3729.525675 63.629316 
3730.490124 63.648069 
3731.454574 63.676207 
3732.419023 63.706296 
3733.383473 63.673095 
3734.347922 63.657541 
3735.312371 63.644968 
3736.276821 63.567151 
3737.241270 63.526144 
3738.205719 63.500180 
3739.170169 63.488162 
3740.134618 63.499111 
3741.099067 63.495784 
3742.063517 63.501383 
3743.027966 63.487472 
3743.992416 63.450984 
3744.956865 63.459105 
3745.921314 63.479779 
3746.885764 63.492544 
3747.850213 63.487510 
3748.814662 63.461696 
3749.779112 63.456993 
3750.743561 63.441010 
3751.708010 63.390601 
3752.672460 63.384481 
3753.636909 63.377891 
3754.601358 63.377294 
3755.565808 63.393939 
3756.530257 63.414512 
3757.494707 63.414957 
3758.459156 63.422582 
3759.423605 63.429593 
3760.388055 63.372178 
3761.352504 63.272547 
3762.316953 63.326082 
3763.281403 63.358452 
3764.245852 63.343465 
3765.210301 63.299707 
3766.174751 63.233037 
3767.139200 63.227670 
3768.103650 63.192429 
3769.068099 63.121477 
3770.032548 63.136088 
3770.996998 63.156377 
3771.961447 63.151161 
3772.925896 63.120648 
3773.890346 63.099896 
3774.854795 63.088461 
3775.819244 63.044219 
3776.783694 63.008381 
3777.748143 63.022749 
3778.712592 63.036178 
3779.677042 63.031173 
3780.641491 62.998655 
3781.605941 62.959031 
3782.570390 62.930360 
3783.534839 62.950407 
3784.499289 62.962693 
3785.463738 62.891372 
3786.428187 62.797604 
3787.392637 62.753592 
3788.357086 62.745440 
3789.321535 62.751562 
3790.285985 62.730883 
3791.250434 62.665773 
3792.214884 62.627995 
3793.179333 62.606627 
3794.143782 62.586534 
3795.108232 62.560946 
3796.072681 62.529672 
3797.037130 62.521853 
3798.001580 62.540899 
3798.966029 62.559834 
3799.930478 62.510856 
3800.894928 62.450824 
3801.859377 62.428550 
3802.823826 62.439910 
3803.788276 62.467676 
3804.752725 62.433024 
3805.717175 62.362467 
3806.681624 62.331195 
3807.646073 62.320259 
3808.610523 62.318862 
3809.574972 62.322016 
3810.539421 62.310291 
3811.503871 62.289395 
3812.468320 62.264158 
3813.432769 62.248349 
3814.397219 62.262872 
3815.361668 62.253838 
3816.326118 62.225317 
3817.290567 62.182384 
3818.255016 62.118913 
3819.219466 62.096464 
3820.183915 62.121680 
3821.148364 62.132198 
3822.112814 62.084554 
3823.077263 62.028322 
3824.041712 61.982766 
3825.006162 61.976148 
3825.970611 61.980074 
3826.935060 61.979942 
3827.899510 61.957504 
3828.863959 61.943563 
3829.828409 61.940297 
3830.792858 61.936496 
3831.757307 61.910984 
3832.721757 61.859710 
3833.686206 61.866577 
3834.650655 61.916102 
3835.615105 61.937453 
3836.579554 61.908197 
3837.544003 61.788333 
3838.508453 61.667005 
3839.472902 61.664427 
3840.437352 61.659148 
3841.401801 61.634258 
3842.366250 61.607633 
3843.330700 61.584251 
3844.295149 61.583414 
3845.259598 61.584263 
3846.224048 61.572046 
3847.188497 61.565100 
3848.152946 61.537828 
3849.117396 61.500686 
3850.081845 61.488741 
3851.046294 61.474564 
3852.010744 61.484987 
3852.975193 61.499477 
3853.939643 61.424644 
3854.904092 61.349066 
3855.868541 61.344275 
3856.832991 61.341138 
3857.797440 61.316280 
3858.761889 61.293502 
3859.726339 61.276058 
3860.690788 61.260316 
3861.655237 61.275893 
3862.619687 61.309174 
3863.584136 61.325927 
3864.548586 61.303723 
3865.513035 61.289479 
3866.477484 61.285966 
3867.441934 61.281439 
3868.406383 61.252497 
3869.370832 61.173194 
3870.335282 61.065523 
3871.299731 61.030352 
3872.264180 61.077116 
3873.228630 61.089538 
3874.193079 61.099745 
3875.157528 61.090108 
3876.121978 61.073207 
3877.086427 61.061314 
3878.050877 61.038642 
3879.015326 61.022804 
3879.979775 61.021046 
3880.944225 61.006888 
3881.908674 60.998142 
3882.873123 61.000977 
3883.837573 60.996025 
3884.802022 60.990223 
3885.766471 60.931548 
3886.730921 60.869699 
3887.695370 60.862947 
3888.659820 60.852074 
3889.624269 60.822936 
3890.588718 60.774294 
3891.553168 60.753715 
3892.517617 60.761254 
3893.482066 60.758833 
3894.446516 60.751857 
3895.410965 60.739882 
3896.375414 60.704321 
3897.339864 60.669005 
3898.304313 60.676234 
3899.268762 60.689646 
3900.233212 60.680711 
3901.197661 60.639999 
3902.162111 60.592993 
3903.126560 60.581104 
3904.091009 60.582976 
3905.055459 60.571279 
3906.019908 60.568908 
3906.984357 60.559850 
3907.948807 60.522709 
3908.913256 60.491481 
3909.877705 60.474989 
3910.842155 60.466669 
3911.806604 60.467782 
3912.771054 60.467453 
3913.735503 60.457403 
3914.699952 60.442441 
3915.664402 60.404344 
3916.628851 60.365816 
3917.593300 60.340935 
3918.557750 60.303018 
3919.522199 60.280370 
3920.486648 60.256604 
3921.451098 60.233032 
3922.415547 60.222648 
3923.379996 60.216572 
3924.344446 60.216386 
3925.308895 60.216958 
3926.273345 60.207454 
3927.237794 60.190624 
3928.202243 60.179343 
3929.166693 60.172554 
3930.131142 60.170460 
3931.095591 60.164340 
3932.060041 60.147821 
3933.024490 60.115900 
3933.988939 60.080781 
3934.953389 60.073614 
3935.917838 60.061983 
3936.882288 60.034696 
3937.846737 60.027064 
3938.811186 60.023858 
3939.775636 60.005303 
3940.740085 59.972744 
3941.704534 59.942280 
3942.668984 59.935479 
3943.633433 59.936606 
3944.597882 59.929796 
3945.562332 59.908348 
3946.526781 59.880387 
3947.491230 59.857825 
3948.455680 59.825339 
3949.420129 59.795047 
3950.384579 59.786445 
3951.349028 59.780155 
3952.313477 59.770747 
3953.277927 59.756982 
3954.242376 59.743310 
3955.206825 59.730205 
3956.171275 59.716919 
3957.135724 59.703647 
3958.100173 59.686993 
3959.064623 59.661430 
3960.029072 59.638384 
3960.993522 59.624399 
3961.957971 59.611029 
3962.922420 59.595483 
3963.886870 59.574544 
3964.851319 59.555154 
3965.815768 59.535532 
3966.780218 59.511679 
3967.744667 59.495048 
3968.709116 59.481365 
3969.673566 59.464588 
3970.638015 59.449010 
3971.602464 59.434716 
3972.566914 59.420363 
3973.531363 59.405812 
3974.495813 59.391433 
3975.460262 59.377548 
3976.424711 59.364603 
3977.389161 59.351046 
3978.353610 59.331286 
3979.318059 59.311525 
3980.282509 59.296430 
3981.246958 59.281155 
3982.211407 59.267096 
3983.175857 59.253577 
3984.140306 59.238763 
3985.104756 59.220856 
3986.069205 59.202156 
3987.033654 59.185877 
3987.998104 59.167865 
3988.962553 59.147577 
3989.927002 59.128476 
3990.891452 59.109229 
3991.855901 59.088557 
3992.820350 59.068233 
3993.784800 59.052081 
3994.749249 59.038117 
3995.713698 59.023606 
3996.678148 59.009066 
3997.642597 58.995038 
3998.607047 58.981208 
3999.571496 58.969764 
4000.535945 58.961783 