##YUNITS=%T
399.282035 48.352319 
400.246484 48.320090 
401.210934 48.323616 
402.175383 48.326949 
403.139832 48.378204 
404.104282 48.477770 
405.068731 48.512009 
406.033181 48.485002 
406.997630 48.447304 
407.962079 48.501250 
408.926529 48.573128 
409.890978 48.652846 
410.855427 48.771305 
411.819877 48.882360 
412.784326 49.049137 
413.748775 49.307559 
414.713225 49.548662 
415.677674 49.739045 
416.642124 49.930089 
417.606573 50.089751 
418.571022 50.205617 
419.535472 50.316863 
420.499921 50.466001 
421.464370 50.684390 
422.428820 50.891609 
423.393269 51.023462 
424.357718 51.149864 
425.322168 51.389497 
426.286617 51.624482 
427.251066 51.827044 
428.215516 52.043494 
430.144415 52.503689 
431.108864 52.673634 
429.179965 52.299289 
432.073313 52.879166 
433.037763 53.157778 
434.002212 53.408207 
434.966661 53.627307 
435.931111 53.843169 
436.895560 54.010518 
437.860009 54.113324 
438.824459 54.266361 
439.788908 54.487115 
440.753358 54.770727 
441.717807 55.025056 
442.682256 55.297481 
443.646706 55.588057 
444.611155 55.876738 
445.575604 56.213148 
446.540054 56.541182 
447.504503 56.778286 
448.468952 57.002166 
449.433402 57.286546 
450.397851 57.623915 
451.362300 57.970427 
452.326750 58.310173 
453.291199 58.675338 
454.255649 59.091709 
455.220098 59.544570 
456.184547 60.032332 
457.148997 60.529691 
458.113446 61.099129 
459.077895 61.749837 
460.042345 62.474674 
461.006794 63.243529 
461.971243 64.078217 
462.935693 64.954923 
463.900142 65.870160 
464.864592 66.821997 
465.829041 67.809077 
466.793490 68.806737 
467.757940 69.818102 
468.722389 70.834096 
469.686838 71.855145 
470.651288 72.871735 
471.615737 73.872560 
472.580186 74.832208 
473.544636 75.763898 
474.509085 76.651837 
475.473534 77.468791 
476.437984 78.216072 
477.402433 78.919137 
478.366883 79.557503 
479.331332 80.134905 
480.295781 80.630343 
481.260231 81.061561 
482.224680 81.446821 
483.189129 81.762521 
484.153579 81.979781 
485.118028 82.128724 
486.082477 82.237009 
487.046927 82.338453 
488.011376 82.400930 
488.975826 82.409816 
489.940275 82.396224 
490.904724 82.403309 
491.869174 82.399969 
492.833623 82.376866 
493.798072 82.315550 
494.762522 82.235724 
495.726971 82.138648 
496.691420 82.025996 
497.655870 81.899845 
498.620319 81.759168 
499.584768 81.579699 
500.549218 81.382046 
501.513667 81.169813 
502.478117 80.958255 
503.442566 80.742464 
504.407015 80.494280 
505.371465 80.197297 
506.335914 79.886120 
507.300363 79.567001 
508.264813 79.247347 
509.229262 78.918449 
510.193711 78.576450 
511.158161 78.217308 
512.122610 77.852057 
513.087060 77.458609 
514.051509 77.044647 
515.015958 76.606102 
515.980408 76.141121 
516.944857 75.650146 
517.909306 75.137050 
518.873756 74.605648 
519.838205 74.060315 
520.802654 73.472884 
521.767104 72.845447 
522.731553 72.188165 
523.696002 71.509087 
524.660452 70.790966 
525.624901 70.026968 
526.589351 69.225672 
527.553800 68.409437 
528.518249 67.558330 
529.482699 66.675016 
530.447148 65.765449 
531.411597 64.819161 
532.376047 63.842466 
533.340496 62.868032 
534.304945 61.881770 
535.269395 60.878801 
536.233844 59.847618 
537.198294 58.792834 
538.162743 57.736945 
539.127192 56.705091 
540.091642 55.682229 
541.056091 54.664000 
542.020540 53.643887 
542.984990 52.637999 
543.949439 51.660127 
544.913888 50.706173 
545.878338 49.768570 
546.842787 48.865684 
547.807236 48.004290 
548.771686 47.179720 
549.736135 46.379074 
550.700585 45.616258 
551.665034 44.894825 
552.629483 44.214632 
553.593933 43.568714 
554.558382 42.971373 
555.522831 42.411415 
556.487281 41.875545 
557.451730 41.358504 
558.416179 40.874118 
559.380629 40.429225 
560.345078 40.025594 
561.309528 39.652817 
562.273977 39.310484 
563.238426 38.993895 
564.202876 38.708389 
565.167325 38.449273 
566.131774 38.222827 
567.096224 38.020405 
568.060673 37.841201 
569.025122 37.682436 
569.989572 37.545646 
570.954021 37.424073 
571.918470 37.325907 
572.882920 37.245530 
573.847369 37.179933 
574.811819 37.120426 
575.776268 37.070588 
576.740717 37.029485 
577.705167 37.001051 
578.669616 36.986695 
579.634065 36.986775 
580.598515 36.991070 
581.562964 37.000667 
582.527413 37.016433 
583.491863 37.047764 
584.456312 37.087401 
585.420762 37.133429 
586.385211 37.181689 
587.349660 37.235672 
588.314110 37.282123 
589.278559 37.325197 
590.243008 37.375995 
591.207458 37.444054 
592.171907 37.521533 
593.136356 37.605374 
594.100806 37.689808 
595.065255 37.776424 
596.029704 37.867005 
596.994154 37.964279 
597.958603 38.063003 
598.923053 38.167255 
599.887502 38.269680 
600.851951 38.373957 
601.816401 38.481363 
602.780850 38.592620 
603.745299 38.704006 
604.709749 38.819836 
605.674198 38.936695 
606.638647 39.051120 
607.603097 39.163322 
608.567546 39.280300 
609.531996 39.397196 
610.496445 39.518731 
611.460894 39.642126 
612.425344 39.765647 
613.389793 39.885995 
614.354242 40.011430 
615.318692 40.138459 
616.283141 40.267345 
617.247590 40.395879 
618.212040 40.526348 
619.176489 40.656526 
620.140938 40.786315 
621.105388 40.918024 
622.069837 41.053751 
623.034287 41.189767 
623.998736 41.324186 
624.963185 41.458429 
625.927635 41.598071 
626.892084 41.735538 
627.856533 41.870715 
628.820983 42.006020 
629.785432 42.142853 
630.749881 42.278923 
631.714331 42.415860 
632.678780 42.553119 
633.643230 42.691427 
634.607679 42.827044 
635.572128 42.961755 
636.536578 43.097542 
637.501027 43.237544 
638.465476 43.380105 
639.429926 43.522380 
640.394375 43.663028 
641.358824 43.801993 
642.323274 43.937077 
643.287723 44.073640 
644.252172 44.213611 
645.216622 44.356078 
646.181071 44.498126 
647.145521 44.642171 
648.109970 44.785050 
649.074419 44.927468 
650.038869 45.071534 
651.003318 45.221769 
651.967767 45.363073 
652.932217 45.505109 
653.896666 45.649885 
654.861115 45.794581 
655.825565 45.937795 
656.790014 46.081400 
657.754464 46.230278 
658.718913 46.383690 
659.683362 46.532386 
660.647812 46.680049 
661.612261 46.828858 
662.576710 46.979976 
663.541160 47.132361 
664.505609 47.286531 
665.470058 47.441928 
666.434508 47.597986 
667.398957 47.753580 
668.363406 47.911443 
669.327856 48.071969 
670.292305 48.234980 
671.256755 48.396394 
672.221204 48.555760 
673.185653 48.714972 
674.150103 48.873306 
675.114552 49.029564 
676.079001 49.186611 
677.043451 49.345256 
678.007900 49.504040 
678.972349 49.662116 
679.936799 49.817602 
680.901248 49.969625 
681.865698 50.122789 
682.830147 50.276358 
683.794596 50.425170 
684.759046 50.562805 
685.723495 50.707147 
686.687944 50.853355 
687.652394 50.997862 
688.616843 51.138332 
689.581292 51.277361 
690.545742 51.416942 
691.510191 51.553530 
692.474640 51.686020 
693.439090 51.820778 
694.403539 51.957144 
695.367989 52.092893 
696.332438 52.226125 
697.296887 52.358770 
698.261337 52.491061 
699.225786 52.623102 
700.190235 52.753593 
701.154685 52.884210 
702.119134 53.016432 
703.083583 53.150601 
704.048033 53.283350 
705.012482 53.416700 
705.976932 53.551383 
706.941381 53.688255 
707.905830 53.824631 
708.870280 53.962205 
709.834729 54.101235 
710.799178 54.244189 
711.763628 54.390617 
712.728077 54.538771 
713.692526 54.688279 
714.656976 54.841748 
715.621425 54.997269 
716.585874 55.155388 
717.550324 55.317067 
718.514773 55.485258 
719.479223 55.657889 
720.443672 55.832494 
721.408121 56.008844 
722.372571 56.191816 
723.337020 56.379598 
724.301469 56.570193 
725.265919 56.764153 
726.230368 56.964454 
727.194817 57.168627 
728.159267 57.376124 
729.123716 57.587575 
730.088166 57.805078 
731.052615 58.026091 
732.017064 58.251096 
732.981514 58.479684 
733.945963 58.712918 
734.910412 58.950222 
735.874862 59.193545 
736.839311 59.439714 
737.803760 59.688256 
738.768210 59.937912 
739.732659 60.188353 
740.697108 60.438337 
741.661558 60.691052 
742.626007 60.946964 
743.590457 61.208591 
744.554906 61.471406 
745.519355 61.733489 
746.483805 61.995765 
747.448254 62.262476 
748.412703 62.532987 
749.377153 62.805705 
750.341602 63.077575 
751.306051 63.350815 
752.270501 63.625723 
753.234950 63.900954 
754.199400 64.177671 
755.163849 64.457231 
756.128298 64.737894 
757.092748 65.019995 
758.057197 65.303223 
759.021646 65.588375 
759.986096 65.874386 
760.950545 66.162601 
761.914994 66.451553 
762.879444 66.740980 
763.843893 67.030928 
764.808342 67.323640 
765.772792 67.616627 
766.737241 67.910272 
767.701691 68.204283 
768.666140 68.499981 
769.630589 68.794187 
770.595039 69.085984 
771.559488 69.376131 
772.523937 69.666245 
773.488387 69.955319 
774.452836 70.243501 
775.417285 70.530628 
776.381735 70.817141 
777.346184 71.100316 
778.310634 71.380518 
779.275083 71.657287 
780.239532 71.931639 
781.203982 72.201659 
782.168431 72.466536 
783.132880 72.726965 
784.097330 72.983917 
785.061779 73.235096 
786.026228 73.479753 
786.990678 73.719943 
787.955127 73.957016 
788.919576 74.188638 
789.884026 74.414209 
790.848475 74.633296 
791.812925 74.847684 
792.777374 75.056227 
793.741823 75.258474 
794.706273 75.454645 
795.670722 75.647857 
796.635171 75.837475 
797.599621 76.020578 
798.564070 76.194771 
799.528519 76.364791 
800.492969 76.531182 
801.457418 76.693344 
802.421868 76.850096 
803.386317 77.002383 
804.350766 77.150919 
805.315216 77.294321 
806.279665 77.430100 
807.244114 77.561329 
808.208564 77.690429 
809.173013 77.817075 
810.137462 77.936959 
811.101912 78.050129 
812.066361 78.158763 
813.030810 78.265013 
813.995260 78.367082 
814.959709 78.465516 
815.924159 78.560359 
816.888608 78.651607 
817.853057 78.738366 
818.817507 78.822946 
819.781956 78.907219 
820.746405 78.990940 
821.710855 79.071285 
822.675304 79.148906 
823.639753 79.224284 
824.604203 79.299640 
825.568652 79.374962 
826.533102 79.450680 
827.497551 79.525930 
828.462000 79.601292 
829.426450 79.674381 
830.390899 79.745329 
831.355348 79.814351 
832.319798 79.885020 
833.284247 79.956963 
834.248696 80.029684 
835.213146 80.101605 
836.177595 80.172545 
837.142044 80.242282 
838.106494 80.312729 
839.070943 80.385970 
840.035393 80.464461 
840.999842 80.546014 
841.964291 80.626472 
842.928741 80.700493 
843.893190 80.767033 
844.857639 80.824077 
845.822089 80.870111 
846.786538 80.905126 
847.750987 80.932017 
848.715437 80.952173 
849.679886 80.968458 
850.644336 80.981593 
851.608785 80.995172 
852.573234 81.012108 
853.537684 81.034657 
854.502133 81.061315 
855.466582 81.091769 
856.431032 81.126735 
857.395481 81.167048 
858.359930 81.212381 
859.324380 81.262166 
860.288829 81.315236 
861.253278 81.372480 
862.217728 81.432058 
863.182177 81.493838 
864.146627 81.557762 
865.111076 81.627269 
866.075525 81.702516 
867.039975 81.782282 
868.004424 81.865470 
868.968873 81.953890 
869.933323 82.046497 
870.897772 82.141027 
871.862221 82.234437 
872.826671 82.324878 
873.791120 82.410524 
874.755570 82.487990 
875.720019 82.552213 
876.684468 82.604404 
877.648918 82.648053 
878.613367 82.686021 
879.577816 82.719637 
880.542266 82.752270 
881.506715 82.785604 
882.471164 82.821357 
883.435614 82.858134 
884.400063 82.896385 
885.364512 82.937699 
886.328962 82.981861 
887.293411 83.023419 
888.257861 83.061155 
889.222310 83.097289 
890.186759 83.133851 
891.151209 83.168708 
892.115658 83.200375 
893.080107 83.227844 
894.044557 83.253051 
895.009006 83.275614 
895.973455 83.295043 
896.937905 83.312116 
897.902354 83.330305 
898.866804 83.348991 
899.831253 83.366017 
900.795702 83.380468 
901.760152 83.393337 
902.724601 83.404378 
903.689050 83.414674 
904.653500 83.423641 
905.617949 83.432328 
906.582398 83.442282 
907.546848 83.451800 
908.511297 83.458528 
909.475746 83.464940 
910.440196 83.473208 
911.404645 83.483839 
912.369095 83.495016 
913.333544 83.505584 
914.297993 83.516345 
915.262443 83.529109 
916.226892 83.542377 
917.191341 83.555768 
918.155791 83.570614 
919.120240 83.586739 
920.084689 83.601090 
921.049139 83.613434 
922.013588 83.625873 
922.978038 83.639999 
923.942487 83.654846 
924.906936 83.670176 
925.871386 83.685008 
926.835835 83.700147 
927.800284 83.715772 
928.764734 83.731145 
929.729183 83.746085 
930.693632 83.763611 
931.658082 83.783117 
932.622531 83.802139 
933.586980 83.818991 
934.551430 83.835338 
935.515879 83.852333 
936.480329 83.870596 
937.444778 83.888644 
938.409227 83.907617 
939.373677 83.928214 
940.338126 83.950012 
941.302575 83.971874 
942.267025 83.994800 
943.231474 84.020222 
944.195923 84.048243 
945.160373 84.076862 
946.124822 84.106168 
947.089272 84.139066 
948.053721 84.175126 
949.018170 84.211855 
949.982620 84.248670 
950.947069 84.286216 
951.911518 84.324551 
952.875968 84.362279 
953.840417 84.400128 
954.804866 84.438392 
955.769316 84.477681 
956.733765 84.517457 
957.698214 84.555900 
958.662664 84.592197 
959.627113 84.627472 
960.591563 84.661689 
961.556012 84.693864 
962.520461 84.724119 
963.484911 84.754217 
964.449360 84.781745 
965.413809 84.805628 
966.378259 84.826709 
967.342708 84.847898 
968.307157 84.869316 
969.271607 84.889411 
970.236056 84.906145 
971.200506 84.920649 
972.164955 84.934546 
973.129404 84.947943 
974.093854 84.959371 
975.058303 84.969233 
976.022752 84.979041 
976.987202 84.988713 
977.951651 84.997003 
978.916100 85.004443 
979.880550 85.011487 
980.844999 85.017246 
981.809448 85.020932 
982.773898 85.023427 
983.738347 85.025844 
984.702797 85.029276 
985.667246 85.032499 
986.631695 85.034598 
987.596145 85.035288 
988.560594 85.036477 
989.525043 85.037396 
990.489493 85.036667 
991.453942 85.034555 
992.418391 85.033265 
993.382841 85.033053 
994.347290 85.032867 
995.311740 85.030734 
996.276189 85.027891 
997.240638 85.025574 
998.205088 85.023930 
999.169537 85.021707 
1000.133986 85.019712 
1001.098436 85.017344 
1002.062885 85.013823 
1003.027334 85.008827 
1003.991784 85.003902 
1004.956233 85.000013 
1005.920682 84.996565 
1006.885132 84.991078 
1007.849581 84.984167 
1008.814031 84.978138 
1009.778480 84.973000 
1010.742929 84.967038 
1011.707379 84.960272 
1012.671828 84.952936 
1013.636277 84.945821 
1014.600727 84.939152 
1015.565176 84.931901 
1016.529625 84.924385 
1017.494075 84.918352 
1018.458524 84.912409 
1019.422974 84.905174 
1020.387423 84.896994 
1021.351872 84.889261 
1022.316322 84.881108 
1023.280771 84.873376 
1024.245220 84.866474 
1025.209670 84.860543 
1026.174119 84.854778 
1027.138568 84.848540 
1028.103018 84.840753 
1029.067467 84.833284 
1030.031916 84.826601 
1030.996366 84.819732 
1031.960815 84.812464 
1032.925265 84.805397 
1033.889714 84.797762 
1034.854163 84.789697 
1035.818613 84.781717 
1036.783062 84.774543 
1037.747511 84.766933 
1038.711961 84.758573 
1039.676410 84.749130 
1040.640859 84.740995 
1041.605309 84.733888 
1042.569758 84.727633 
1043.534208 84.722239 
1044.498657 84.718265 
1045.463106 84.716002 
1046.427556 84.716134 
1047.392005 84.719149 
1048.356454 84.724829 
1049.320904 84.733458 
1050.285353 84.745064 
1051.249802 84.757459 
1052.214252 84.770843 
1053.178701 84.786608 
1054.143150 84.804648 
1055.107600 84.822782 
1056.072049 84.841056 
1057.036499 84.859326 
1058.000948 84.877274 
1058.965397 84.894000 
1059.929847 84.910078 
1060.894296 84.926732 
1061.858745 84.945879 
1062.823195 84.966797 
1063.787644 84.987496 
1064.752093 85.007959 
1065.716543 85.029496 
1066.680992 85.052064 
1067.645442 85.075258 
1068.609891 85.099739 
1069.574340 85.125194 
1070.538790 85.150243 
1071.503239 85.176710 
1072.467688 85.204689 
1073.432138 85.234130 
1074.396587 85.265334 
1075.361036 85.299025 
1076.325486 85.333777 
1077.289935 85.369702 
1078.254384 85.408583 
1079.218834 85.449690 
1080.183283 85.490883 
1081.147733 85.532516 
1082.112182 85.574908 
1083.076631 85.616688 
1084.041081 85.656472 
1085.005530 85.695669 
1085.969979 85.734918 
1086.934429 85.772734 
1087.898878 85.806381 
1088.863327 85.837593 
1089.827777 85.868455 
1090.792226 85.899066 
1091.756676 85.929111 
1092.721125 85.959379 
1093.685574 85.989786 
1094.650024 86.019745 
1095.614473 86.048379 
1096.578922 86.075634 
1097.543372 86.102842 
1098.507821 86.131007 
1099.472270 86.158507 
1100.436720 86.184669 
1101.401169 86.210117 
1102.365618 86.235160 
1103.330068 86.259629 
1104.294517 86.283894 
1105.258967 86.306547 
1106.223416 86.326813 
1107.187865 86.344977 
1108.152315 86.360916 
1109.116764 86.375022 
1110.081213 86.389512 
1111.045663 86.404682 
1112.010112 86.418071 
1112.974561 86.429862 
1113.939011 86.441660 
1114.903460 86.452998 
1115.867910 86.463784 
1116.832359 86.475044 
1117.796808 86.487956 
1118.761258 86.502135 
1119.725707 86.515615 
1120.690156 86.528383 
1121.654606 86.542873 
1122.619055 86.559647 
1123.583504 86.578565 
1124.547954 86.598586 
1125.512403 86.619058 
1126.476852 86.640135 
1127.441302 86.662327 
1128.405751 86.685437 
1129.370201 86.709704 
1130.334650 86.735597 
1131.299099 86.762692 
1132.263549 86.789299 
1133.227998 86.816459 
1134.192447 86.845205 
1135.156897 86.874794 
1136.121346 86.902828 
1137.085795 86.928557 
1138.050245 86.953424 
1139.014694 86.978360 
1139.979144 87.003423 
1140.943593 87.028199 
1141.908042 87.053004 
1142.872492 87.077859 
1143.836941 87.101093 
1144.801390 87.122432 
1145.765840 87.143271 
1146.730289 87.165148 
1147.694738 87.188616 
1148.659188 87.212129 
1149.623637 87.234203 
1150.588086 87.255577 
1151.552536 87.277249 
1152.516985 87.297927 
1153.481435 87.317516 
1154.445884 87.337381 
1155.410333 87.359205 
1156.374783 87.381606 
1157.339232 87.401948 
1158.303681 87.420972 
1159.268131 87.441041 
1160.232580 87.462877 
1161.197029 87.484569 
1162.161479 87.506109 
1163.125928 87.528562 
1164.090378 87.552623 
1165.054827 87.577264 
1166.019276 87.601405 
1166.983726 87.625627 
1167.948175 87.651234 
1168.912624 87.677045 
1169.877074 87.703435 
1170.841523 87.730519 
1171.805972 87.758102 
1172.770422 87.785345 
1173.734871 87.810962 
1174.699320 87.835251 
1175.663770 87.859451 
1176.628219 87.884232 
1177.592669 87.909134 
1178.557118 87.932664 
1179.521567 87.955778 
1180.486017 87.978708 
1181.450466 87.999386 
1182.414915 88.017745 
1183.379365 88.035591 
1184.343814 88.054220 
1185.308263 88.072652 
1186.272713 88.090644 
1187.237162 88.108798 
1188.201612 88.126617 
1189.166061 88.142713 
1190.130510 88.157274 
1191.094960 88.171527 
1192.059409 88.186652 
1193.023858 88.202553 
1193.988308 88.217083 
1194.952757 88.230782 
1195.917206 88.245226 
1196.881656 88.260525 
1197.846105 88.275106 
1198.810554 88.288006 
1199.775004 88.302067 
1200.739453 88.317939 
1201.703903 88.332816 
1202.668352 88.346960 
1203.632801 88.360933 
1204.597251 88.375137 
1205.561700 88.388865 
1206.526149 88.401264 
1207.490599 88.413279 
1208.455048 88.425889 
1209.419497 88.438184 
1210.383947 88.449167 
1211.348396 88.459584 
1212.312846 88.470961 
1213.277295 88.482441 
1214.241744 88.492644 
1215.206194 88.502827 
1216.170643 88.514042 
1217.135092 88.525353 
1218.099542 88.535392 
1219.063991 88.543923 
1220.028440 88.551680 
1220.992890 88.559602 
1221.957339 88.568100 
1222.921788 88.576242 
1223.886238 88.583329 
1224.850687 88.591079 
1225.815137 88.599202 
1226.779586 88.606361 
1227.744035 88.613072 
1228.708485 88.620476 
1229.672934 88.628664 
1230.637383 88.635885 
1231.601833 88.641911 
1232.566282 88.649253 
1233.530731 88.657703 
1234.495181 88.665646 
1235.459630 88.672665 
1236.424080 88.678814 
1237.388529 88.684938 
1238.352978 88.691170 
1239.317428 88.696051 
1240.281877 88.699534 
1241.246326 88.702684 
1242.210776 88.705473 
1243.175225 88.706715 
1244.139674 88.705523 
1245.104124 88.703939 
1246.068573 88.703559 
1247.033022 88.703003 
1247.997472 88.701037 
1248.961921 88.697831 
1249.926371 88.694270 
1250.890820 88.691033 
1251.855269 88.688171 
1252.819719 88.685629 
1253.784168 88.684338 
1254.748617 88.683646 
1255.713067 88.681099 
1256.677516 88.678190 
1257.641965 88.677911 
1258.606415 88.679702 
1259.570864 88.681633 
1260.535314 88.682544 
1261.499763 88.684103 
1262.464212 88.687318 
1263.428662 88.690313 
1264.393111 88.692342 
1265.357560 88.694574 
1266.322010 88.697875 
1267.286459 88.701652 
1268.250908 88.703726 
1269.215358 88.704247 
1270.179807 88.705474 
1271.144256 88.706669 
1272.108706 88.705509 
1273.073155 88.703203 
1274.037605 88.700981 
1275.002054 88.698351 
1275.966503 88.694109 
1276.930953 88.687968 
1277.895402 88.682613 
1278.859851 88.678877 
1279.824301 88.674293 
1280.788750 88.667309 
1281.753199 88.660277 
1282.717649 88.655115 
1283.682098 88.650824 
1284.646548 88.646418 
1285.610997 88.641847 
1286.575446 88.637930 
1287.539896 88.634355 
1288.504345 88.630638 
1289.468794 88.627521 
1290.433244 88.625306 
1291.397693 88.623806 
1292.362142 88.621655 
1293.326592 88.619158 
1294.291041 88.617485 
1295.255490 88.616564 
1296.219940 88.614229 
1297.184389 88.610531 
1298.148839 88.608018 
1299.113288 88.606720 
1300.077737 88.605200 
1301.042187 88.601397 
1302.006636 88.597840 
1302.971085 88.594555 
1303.935535 88.590928 
1304.899984 88.586695 
1305.864433 88.582664 
1306.828883 88.578437 
1307.793332 88.574151 
1308.757782 88.569125 
1309.722231 88.563505 
1310.686680 88.558678 
1311.651130 88.555004 
1312.615579 88.551028 
1313.580028 88.546006 
1314.544478 88.541974 
1315.508927 88.539465 
1316.473376 88.536498 
1317.437826 88.532276 
1318.402275 88.527789 
1319.366724 88.524742 
1320.331174 88.522102 
1321.295623 88.519725 
1322.260073 88.517242 
1323.224522 88.514135 
1324.188971 88.510178 
1325.153421 88.506028 
1326.117870 88.503357 
1327.082319 88.500805 
1328.046769 88.498507 
1329.011218 88.494733 
1329.975667 88.490570 
1330.940117 88.486742 
1331.904566 88.483422 
1332.869016 88.479340 
1333.833465 88.473537 
1334.797914 88.467243 
1335.762364 88.460938 
1336.726813 88.456061 
1337.691262 88.450799 
1338.655712 88.442177 
1339.620161 88.433351 
1340.584610 88.426524 
1341.549060 88.419019 
1342.513509 88.409696 
1343.477958 88.401660 
1344.442408 88.393817 
1345.406857 88.385025 
1346.371307 88.375279 
1347.335756 88.357188 
1348.300205 88.345030 
1349.264655 88.336986 
1350.229104 88.328288 
1351.193553 88.320621 
1352.158003 88.312507 
1353.122452 88.302335 
1354.086901 88.293438 
1355.051351 88.283468 
1356.015800 88.273983 
1356.980250 88.265629 
1357.944699 88.252959 
1358.909148 88.237470 
1359.873598 88.223254 
1360.838047 88.213570 
1361.802496 88.203117 
1362.766946 88.191100 
1363.731395 88.177795 
1364.695844 88.165528 
1365.660294 88.154226 
1366.624743 88.142512 
1367.589192 88.129021 
1368.553642 88.114285 
1369.518091 88.099000 
1370.482541 88.079488 
1371.446990 88.046350 
1372.411439 88.016813 
1373.375889 87.994515 
1374.340338 87.971636 
1375.304787 87.948598 
1376.269237 87.928114 
1377.233686 87.909198 
1378.198135 87.887276 
1379.162585 87.862796 
1380.127034 87.842183 
1381.091484 87.835875 
1382.055933 87.828592 
1383.020382 87.813380 
1383.984832 87.799239 
1384.949281 87.788712 
1385.913730 87.780853 
1386.878180 87.776156 
1387.842629 87.771356 
1388.807078 87.763213 
1389.771528 87.752841 
1390.735977 87.743748 
1391.700426 87.740580 
1392.664876 87.743222 
1393.629325 87.745839 
1394.593775 87.745374 
1395.558224 87.743181 
1396.522673 87.741597 
1397.487123 87.741230 
1398.451572 87.740744 
1399.416021 87.737019 
1400.380471 87.730768 
1401.344920 87.721965 
1402.309369 87.713706 
1403.273819 87.689606 
1404.238268 87.664812 
1405.202718 87.657752 
1406.167167 87.654537 
1407.131616 87.645630 
1408.096066 87.629797 
1409.060515 87.615358 
1410.024964 87.600764 
1410.989414 87.582374 
1411.953863 87.565264 
1412.918312 87.551581 
1413.882762 87.531134 
1414.847211 87.506654 
1415.811660 87.481001 
1416.776110 87.457163 
1417.740559 87.433085 
1418.705009 87.406954 
1419.669458 87.380269 
1420.633907 87.338157 
1421.598357 87.293141 
1422.562806 87.255265 
1423.527255 87.217274 
1424.491705 87.173771 
1425.456154 87.126702 
1426.420603 87.076303 
1427.385053 87.025235 
1428.349502 86.970533 
1429.313952 86.913537 
1430.278401 86.856519 
1431.242850 86.794365 
1432.207300 86.717452 
1433.171749 86.637009 
1434.136198 86.551745 
1435.100648 86.458497 
1436.065097 86.346730 
1437.029546 86.237178 
1437.993996 86.124368 
1438.958445 85.998657 
1439.922894 85.864539 
1440.887344 85.699135 
1441.851793 85.526019 
1442.816243 85.347941 
1443.780692 85.170560 
1444.745141 84.992848 
1445.709591 84.810208 
1446.674040 84.624841 
1447.638489 84.446075 
1448.602939 84.254051 
1449.567388 84.055188 
1450.531837 83.872182 
1451.496287 83.697319 
1452.460736 83.526525 
1453.425186 83.357865 
1454.389635 83.215622 
1455.354084 83.086575 
1456.318534 82.949100 
1457.282983 82.819265 
1458.247432 82.713907 
1459.211882 82.639719 
1460.176331 82.570966 
1461.140780 82.516548 
1462.105230 82.484315 
1463.069679 82.467252 
1464.034128 82.460287 
1464.998578 82.458461 
1465.963027 82.473685 
1466.927477 82.499363 
1467.891926 82.530072 
1468.856375 82.566419 
1469.820825 82.613603 
1470.785274 82.660063 
1471.749723 82.701648 
1472.714173 82.749406 
1473.678622 82.782807 
1474.643071 82.827894 
1475.607521 82.890917 
1476.571970 82.965195 
1477.536420 83.037655 
1478.500869 83.108205 
1479.465318 83.178301 
1480.429768 83.234331 
1481.394217 83.290133 
1482.358666 83.359093 
1483.323116 83.434712 
1484.287565 83.510997 
1485.252014 83.587216 
1486.216464 83.662724 
1487.180913 83.742329 
1488.145362 83.821498 
1489.109812 83.901392 
1490.074261 83.985270 
1491.038711 84.070631 
1492.003160 84.161587 
1492.967609 84.248834 
1493.932059 84.351424 
1494.896508 84.464567 
1495.860957 84.572691 
1496.825407 84.677424 
1497.789856 84.786358 
1498.754305 84.900910 
1499.718755 85.020236 
1500.683204 85.131911 
1501.647654 85.235651 
1502.612103 85.347021 
1503.576552 85.461752 
1504.541002 85.572277 
1505.505451 85.674134 
1506.469900 85.766740 
1507.434350 85.870054 
1508.398799 85.989595 
1509.363248 86.097360 
1510.327698 86.199575 
1511.292147 86.299980 
1512.256596 86.390242 
1513.221046 86.475611 
1514.185495 86.573729 
1515.149945 86.664997 
1516.114394 86.753852 
1517.078843 86.842743 
1518.043293 86.915022 
1519.007742 86.990206 
1519.972191 87.066329 
1520.936641 87.140125 
1521.901090 87.207792 
1522.865539 87.258177 
1523.829989 87.292418 
1524.794438 87.347222 
1525.758888 87.401715 
1526.723337 87.447894 
1527.687786 87.498904 
1528.652236 87.542256 
1529.616685 87.579966 
1530.581134 87.624482 
1531.545584 87.663466 
1532.510033 87.700599 
1533.474482 87.728345 
1534.438932 87.751899 
1535.403381 87.786014 
1536.367830 87.813727 
1537.332280 87.831479 
1538.296729 87.839342 
1539.261179 87.858025 
1540.225628 87.888004 
1541.190077 87.919619 
1542.154527 87.928213 
1543.118976 87.931744 
1544.083425 87.927046 
1545.047875 87.930816 
1546.012324 87.945745 
1546.976773 87.962448 
1547.941223 87.975409 
1548.905672 87.979854 
1549.870122 87.981538 
1550.834571 87.986732 
1551.799020 88.003730 
1552.763470 88.013754 
1553.727919 88.008091 
1554.692368 88.001833 
1555.656818 87.990098 
1556.621267 87.975422 
1557.585716 87.982351 
1558.550166 87.987048 
1559.514615 87.989297 
1560.479064 87.979667 
1561.443514 87.972358 
1562.407963 87.971388 
1563.372413 87.976928 
1564.336862 87.978196 
1565.301311 87.976282 
1566.265761 87.969302 
1567.230210 87.962829 
1568.194659 87.962260 
1569.159109 87.958860 
1570.123558 87.951231 
1571.088007 87.938446 
1572.052457 87.934710 
1573.016906 87.931603 
1573.981356 87.918176 
1574.945805 87.890907 
1575.910254 87.871063 
1576.874704 87.863407 
1577.839153 87.867770 
1578.803602 87.865618 
1579.768052 87.858734 
1580.732501 87.849560 
1581.696950 87.839533 
1582.661400 87.835179 
1583.625849 87.830210 
1584.590298 87.821847 
1585.554748 87.808430 
1586.519197 87.793590 
1587.483647 87.790989 
1588.448096 87.787265 
1589.412545 87.779683 
1590.376995 87.770246 
1591.341444 87.758076 
1592.305893 87.742340 
1593.270343 87.723668 
1594.234792 87.721864 
1595.199241 87.718335 
1596.163691 87.709931 
1597.128140 87.698952 
1598.092590 87.687499 
1599.057039 87.678669 
1600.021488 87.668046 
1600.985938 87.641541 
1601.950387 87.623186 
1602.914836 87.610744 
1603.879286 87.597929 
1604.843735 87.584364 
1605.808184 87.572661 
1606.772634 87.558666 
1607.737083 87.536499 
1608.701532 87.519432 
1609.665982 87.507824 
1610.630431 87.497606 
1611.594881 87.483106 
1612.559330 87.469399 
1613.523779 87.460093 
1614.488229 87.451625 
1615.452678 87.441990 
1616.417127 87.431425 
1617.381577 87.423630 
1618.346026 87.422056 
1619.310475 87.398902 
1620.274925 87.376601 
1621.239374 87.363428 
1622.203824 87.352368 
1623.168273 87.347557 
1624.132722 87.343657 
1625.097172 87.342206 
1626.061621 87.339908 
1627.026070 87.340486 
1627.990520 87.345247 
1628.954969 87.353183 
1629.919418 87.348983 
1630.883868 87.343296 
1631.848317 87.338057 
1632.812766 87.334504 
1633.777216 87.337826 
1634.741665 87.365076 
1635.706115 87.401213 
1636.670564 87.414928 
1637.635013 87.401322 
1638.599463 87.402303 
1639.563912 87.414001 
1640.528361 87.433348 
1641.492811 87.462949 
1642.457260 87.490335 
1643.421709 87.513577 
1644.386159 87.533383 
1645.350608 87.558104 
1646.315058 87.579016 
1647.279507 87.588793 
1648.243956 87.605650 
1649.208406 87.624139 
1650.172855 87.641800 
1651.137304 87.655393 
1652.101754 87.659254 
1653.066203 87.670858 
1654.030652 87.688039 
1654.995102 87.706413 
1655.959551 87.723837 
1656.924000 87.741253 
1657.888450 87.764893 
1658.852899 87.780858 
1659.817349 87.786346 
1660.781798 87.799786 
1661.746247 87.812617 
1662.710697 87.818990 
1663.675146 87.833567 
1664.639595 87.849245 
1665.604045 87.875319 
1666.568494 87.906757 
1667.532943 87.929788 
1668.497393 87.919271 
1669.461842 87.895010 
1670.426292 87.893242 
1671.390741 87.928465 
1672.355190 87.957902 
1673.319640 87.979423 
1674.284089 87.993408 
1675.248538 88.007554 
1676.212988 88.022052 
1677.177437 88.036352 
1678.141886 88.052894 
1679.106336 88.066056 
1680.070785 88.063135 
1681.035234 88.077058 
1681.999684 88.092840 
1682.964133 88.116564 
1683.928583 88.124893 
1684.893032 88.113816 
1685.857481 88.112180 
1686.821931 88.130553 
1687.786380 88.150443 
1688.750829 88.163346 
1689.715279 88.181406 
1690.679728 88.191488 
1691.644177 88.197301 
1692.608627 88.211421 
1693.573076 88.236512 
1694.537526 88.252939 
1695.501975 88.267591 
1696.466424 88.281117 
1697.430874 88.296484 
1698.395323 88.311343 
1699.359772 88.315425 
1700.324222 88.315697 
1701.288671 88.308990 
1702.253120 88.314551 
1703.217570 88.328407 
1704.182019 88.341820 
1705.146468 88.352984 
1706.110918 88.365457 
1707.075367 88.376455 
1708.039817 88.387828 
1709.004266 88.400254 
1709.968715 88.411249 
1710.933165 88.420189 
1711.897614 88.422061 
1712.862063 88.420862 
1713.826513 88.434416 
1714.790962 88.443720 
1715.755411 88.452398 
1716.719861 88.450005 
1717.684310 88.445158 
1718.648760 88.449347 
1719.613209 88.455159 
1720.577658 88.460608 
1721.542108 88.465921 
1722.506557 88.478005 
1723.471006 88.481436 
1724.435456 88.485553 
1725.399905 88.495210 
1726.364354 88.503575 
1727.328804 88.505406 
1728.293253 88.509002 
1729.257702 88.514058 
1730.222152 88.516028 
1731.186601 88.513059 
1732.151051 88.510282 
1733.115500 88.509252 
1734.079949 88.506531 
1735.044399 88.498672 
1736.008848 88.503497 
1736.973297 88.512958 
1737.937747 88.518647 
1738.902196 88.523426 
1739.866645 88.527690 
1740.831095 88.526647 
1741.795544 88.527676 
1742.759994 88.530803 
1743.724443 88.533842 
1744.688892 88.538884 
1745.653342 88.533868 
1746.617791 88.523929 
1747.582240 88.523865 
1748.546690 88.526447 
1749.511139 88.521790 
1750.475588 88.510966 
1751.440038 88.507969 
1752.404487 88.511088 
1753.368936 88.513312 
1754.333386 88.515048 
1755.297835 88.510124 
1756.262285 88.491043 
1757.226734 88.476568 
1758.191183 88.478968 
1759.155633 88.475761 
1760.120082 88.464755 
1761.084531 88.461444 
1762.048981 88.461015 
1763.013430 88.458010 
1763.977879 88.452461 
1764.942329 88.441752 
1765.906778 88.435490 
1766.871228 88.435832 
1767.835677 88.431748 
1768.800126 88.427805 
1769.764576 88.429129 
1770.729025 88.429738 
1771.693474 88.430049 
1772.657924 88.428361 
1773.622373 88.426680 
1774.586822 88.429450 
1775.551272 88.433171 
1776.515721 88.427529 
1777.480170 88.420387 
1778.444620 88.417285 
1779.409069 88.422386 
1780.373519 88.427515 
1781.337968 88.430468 
1782.302417 88.435562 
1783.266867 88.436130 
1784.231316 88.430586 
1785.195765 88.425393 
1786.160215 88.425914 
1787.124664 88.423224 
1788.089113 88.415110 
1789.053563 88.407830 
1790.018012 88.410311 
1790.982462 88.418478 
1791.946911 88.417520 
1792.911360 88.416677 
1793.875810 88.419352 
1794.840259 88.415746 
1795.804708 88.411463 
1796.769158 88.406540 
1797.733607 88.401836 
1798.698056 88.402882 
1799.662506 88.402873 
1800.626955 88.400935 
1801.591404 88.394255 
1802.555854 88.391974 
1803.520303 88.392226 
1804.484753 88.390365 
1805.449202 88.387645 
1806.413651 88.383615 
1807.378101 88.378621 
1808.342550 88.375806 
1809.306999 88.362035 
1810.271449 88.358399 
1811.235898 88.365158 
1812.200347 88.368745 
1813.164797 88.367191 
1814.129246 88.357088 
1815.093696 88.352950 
1816.058145 88.351544 
1817.022594 88.352695 
1817.987044 88.355579 
1818.951493 88.356473 
1819.915942 88.360804 
1820.880392 88.364278 
1821.844841 88.364514 
1822.809290 88.367039 
1823.773740 88.369617 
1824.738189 88.372154 
1825.702638 88.375329 
1826.667088 88.379250 
1827.631537 88.378712 
1828.595987 88.369023 
1829.560436 88.366900 
1830.524885 88.370255 
1831.489335 88.371712 
1832.453784 88.370573 
1833.418233 88.371599 
1834.382683 88.372042 
1835.347132 88.374040 
1836.311581 88.375497 
1837.276031 88.376150 
1838.240480 88.375467 
1839.204930 88.374446 
1840.169379 88.373759 
1841.133828 88.371005 
1842.098278 88.363353 
1843.062727 88.365623 
1844.027176 88.368551 
1844.991626 88.365605 
1845.956075 88.356097 
1846.920524 88.348957 
1847.884974 88.355450 
1848.849423 88.359986 
1849.813872 88.358859 
1850.778322 88.356632 
1851.742771 88.354067 
1852.707221 88.348330 
1853.671670 88.338767 
1854.636119 88.334202 
1855.600569 88.333742 
1856.565018 88.332048 
1857.529467 88.329349 
1858.493917 88.324474 
1859.458366 88.318640 
1860.422815 88.307951 
1861.387265 88.297265 
1862.351714 88.301811 
1863.316164 88.301379 
1864.280613 88.295576 
1865.245062 88.290914 
1866.209512 88.289138 
1867.173961 88.285215 
1868.138410 88.280237 
1869.102860 88.274287 
1870.067309 88.269218 
1871.031758 88.264149 
1871.996208 88.261560 
1872.960657 88.256543 
1873.925106 88.246897 
1874.889556 88.239493 
1875.854005 88.234252 
1876.818455 88.229437 
1877.782904 88.224581 
1878.747353 88.217743 
1879.711803 88.209744 
1880.676252 88.202994 
1881.640701 88.196543 
1882.605151 88.188681 
1883.569600 88.179647 
1884.534049 88.170533 
1885.498499 88.161476 
1886.462948 88.155135 
1887.427398 88.152905 
1888.391847 88.148356 
1889.356296 88.142424 
1890.320746 88.136974 
1891.285195 88.131027 
1892.249644 88.124383 
1893.214094 88.118568 
1894.178543 88.111264 
1895.142992 88.104460 
1896.107442 88.098138 
1897.071891 88.093103 
1898.036340 88.088423 
1899.000790 88.083754 
1899.965239 88.079584 
1900.929689 88.077261 
1901.894138 88.069345 
1902.858587 88.061527 
1903.823037 88.058010 
1904.787486 88.055564 
1905.751935 88.051362 
1906.716385 88.043874 
1907.680834 88.040439 
1908.645283 88.038215 
1909.609733 88.035467 
1910.574182 88.033154 
1911.538632 88.030000 
1912.503081 88.027538 
1913.467530 88.026901 
1914.431980 88.024940 
1915.396429 88.022888 
1916.360878 88.020569 
1917.325328 88.018088 
1918.289777 88.016181 
1919.254226 88.014292 
1920.218676 88.011319 
1921.183125 88.008028 
1922.147574 88.005249 
1923.112024 88.002999 
1924.076473 88.000445 
1925.040923 88.000801 
1926.005372 87.998244 
1926.969821 87.987023 
1927.934271 87.983623 
1928.898720 87.982742 
1929.863169 87.979836 
1930.827619 87.976997 
1931.792068 87.975394 
1932.756517 87.973403 
1933.720967 87.970116 
1934.685416 87.963708 
1935.649866 87.963320 
1936.614315 87.965603 
1937.578764 87.964942 
1938.543214 87.962135 
1939.507663 87.957140 
1940.472112 87.956249 
1941.436562 87.958124 
1942.401011 87.958451 
1943.365460 87.958268 
1944.329910 87.957386 
1945.294359 87.955891 
1946.258808 87.954388 
1947.223258 87.953193 
1948.187707 87.952325 
1949.152157 87.951229 
1950.116606 87.950217 
1951.081055 87.947740 
1952.045505 87.943509 
1953.009954 87.939946 
1953.974403 87.937233 
1954.938853 87.934763 
1955.903302 87.932585 
1956.867751 87.929783 
1957.832201 87.925590 
1958.796650 87.916579 
1959.761100 87.909148 
1960.725549 87.910989 
1961.689998 87.908853 
1962.654448 87.904210 
1963.618897 87.901460 
1964.583346 87.899512 
1965.547796 87.895711 
1966.512245 87.891477 
1967.476694 87.887975 
1968.441144 87.884528 
1969.405593 87.880930 
1970.370042 87.877466 
1971.334492 87.873631 
1972.298941 87.869065 
1973.263391 87.864282 
1974.227840 87.860797 
1975.192289 87.857060 
1976.156739 87.850343 
1977.121188 87.843620 
1978.085637 87.838035 
1979.050087 87.832709 
1980.014536 87.827872 
1980.978985 87.822691 
1981.943435 87.816886 
1982.907884 87.809792 
1983.872334 87.802451 
1984.836783 87.796734 
1985.801232 87.792069 
1986.765682 87.786313 
1987.730131 87.780499 
1988.694580 87.775077 
1989.659030 87.769675 
1990.623479 87.763597 
1991.587928 87.757441 
1992.552378 87.750980 
1993.516827 87.744361 
1994.481276 87.737757 
1995.445726 87.731374 
1996.410175 87.725354 
1997.374625 87.719275 
1998.339074 87.712396 
1999.303523 87.707090 
2000.267973 87.701635 
2001.232422 87.693618 
2002.196871 87.686027 
2003.161321 87.678269 
2004.125770 87.670990 
2005.090219 87.663887 
2006.054669 87.657611 
2007.019118 87.651310 
2007.983568 87.643664 
2008.948017 87.636420 
2009.912466 87.632152 
2010.876916 87.627768 
2011.841365 87.622410 
2012.805814 87.617302 
2013.770264 87.611864 
2014.734713 87.606109 
2015.699162 87.600466 
2016.663612 87.596049 
2017.628061 87.591568 
2018.592510 87.586482 
2019.556960 87.581343 
2020.521409 87.576952 
2021.485859 87.572912 
2022.450308 87.568731 
2023.414757 87.564389 
2024.379207 87.561214 
2025.343656 87.556914 
2026.308105 87.552890 
2027.272555 87.549389 
2028.237004 87.545556 
2029.201453 87.542228 
2030.165903 87.539151 
2031.130352 87.535539 
2032.094802 87.531864 
2033.059251 87.526953 
2034.023700 87.522396 
2034.988150 87.519900 
2035.952599 87.517775 
2036.917048 87.516649 
2037.881498 87.515411 
2038.845947 87.513407 
2039.810396 87.511446 
2040.774846 87.510561 
2041.739295 87.509963 
2042.703744 87.508155 
2043.668194 87.505965 
2044.632643 87.503819 
2045.597093 87.502401 
2046.561542 87.500939 
2047.525991 87.499918 
2048.490441 87.498091 
2049.454890 87.495402 
2050.419339 87.492961 
2051.383789 87.490795 
2052.348238 87.488976 
2053.312687 87.487975 
2054.277137 87.487515 
2055.241586 87.486958 
2056.206036 87.486066 
2057.170485 87.484896 
2058.134934 87.482596 
2059.099384 87.481246 
2060.063833 87.479695 
2061.028282 87.477972 
2061.992732 87.477441 
2062.957181 87.476515 
2063.921630 87.474244 
2064.886080 87.472057 
2065.850529 87.470878 
2066.814978 87.470006 
2067.779428 87.468425 
2068.743877 87.466653 
2069.708327 87.464744 
2070.672776 87.462687 
2071.637225 87.459998 
2072.601675 87.457577 
2073.566124 87.455214 
2074.530573 87.452008 
2075.495023 87.448600 
2076.459472 87.445174 
2077.423921 87.441537 
2078.388371 87.438594 
2079.352820 87.435306 
2080.317270 87.431230 
2081.281719 87.425497 
2082.246168 87.420311 
2083.210618 87.416613 
2084.175067 87.412682 
2085.139516 87.408317 
2086.103966 87.404514 
2087.068415 87.400949 
2088.032864 87.396569 
2088.997314 87.391869 
2089.961763 87.387368 
2090.926212 87.382829 
2091.890662 87.378195 
2092.855111 87.373161 
2093.819561 87.368204 
2094.784010 87.363298 
2095.748459 87.357561 
2096.712909 87.350932 
2097.677358 87.344934 
2098.641807 87.339251 
2099.606257 87.333322 
2100.570706 87.326840 
2101.535155 87.320670 
2102.499605 87.315265 
2103.464054 87.310007 
2104.428504 87.304324 
2105.392953 87.298945 
2106.357402 87.293204 
2107.321852 87.287526 
2108.286301 87.282341 
2109.250750 87.276586 
2110.215200 87.270937 
2111.179649 87.265842 
2112.144098 87.260282 
2113.108548 87.253926 
2114.072997 87.247538 
2115.037446 87.242107 
2116.001896 87.237083 
2116.966345 87.232286 
2117.930795 87.227603 
2118.895244 87.223346 
2119.859693 87.218384 
2120.824143 87.212981 
2121.788592 87.207925 
2122.753041 87.203276 
2123.717491 87.198703 
2124.681940 87.194004 
2125.646389 87.188707 
2126.610839 87.183477 
2127.575288 87.178752 
2128.539738 87.174209 
2129.504187 87.169344 
2130.468636 87.165297 
2131.433086 87.162041 
2132.397535 87.159461 
2133.361984 87.156622 
2134.326434 87.153680 
2135.290883 87.151120 
2136.255332 87.148823 
2137.219782 87.146465 
2138.184231 87.144142 
2139.148680 87.141649 
2140.113130 87.139378 
2141.077579 87.136956 
2142.042029 87.134577 
2143.006478 87.132694 
2143.970927 87.131418 
2144.935377 87.129943 
2145.899826 87.128232 
2146.864275 87.126598 
2147.828725 87.125557 
2148.793174 87.124727 
2149.757623 87.123972 
2150.722073 87.123297 
2151.686522 87.122675 
2152.650972 87.121533 
2153.615421 87.120494 
2154.579870 87.119302 
2155.544320 87.118417 
2156.508769 87.117561 
2157.473218 87.116142 
2158.437668 87.114277 
2159.402117 87.112987 
2160.366566 87.112344 
2161.331016 87.111849 
2162.295465 87.111018 
2163.259914 87.110603 
2164.224364 87.110264 
2165.188813 87.109598 
2166.153263 87.108271 
2167.117712 87.107161 
2168.082161 87.106383 
2169.046611 87.105609 
2170.011060 87.104083 
2170.975509 87.101817 
2171.939959 87.099115 
2172.904408 87.096670 
2173.868857 87.094224 
2174.833307 87.091562 
2175.797756 87.089051 
2176.762206 87.086774 
2177.726655 87.083963 
2178.691104 87.081379 
2179.655554 87.079089 
2180.620003 87.077341 
2181.584452 87.075801 
2182.548902 87.074052 
2183.513351 87.071652 
2184.477800 87.068584 
2185.442250 87.065030 
2186.406699 87.061415 
2187.371148 87.057492 
2188.335598 87.054050 
2189.300047 87.050359 
2190.264497 87.046202 
2191.228946 87.041811 
2192.193395 87.037659 
2193.157845 87.033957 
2194.122294 87.030651 
2195.086743 87.026967 
2196.051193 87.023171 
2197.015642 87.019421 
2197.980091 87.015409 
2198.944541 87.010784 
2199.908990 87.006115 
2200.873440 87.000712 
2201.837889 86.994888 
2202.802338 86.988240 
2203.766788 86.980836 
2204.731237 86.973429 
2205.695686 86.966742 
2206.660136 86.960334 
2207.624585 86.954094 
2208.589034 86.948070 
2209.553484 86.942493 
2210.517933 86.936893 
2211.482382 86.931425 
2212.446832 86.925699 
2213.411281 86.920119 
2214.375731 86.914141 
2215.340180 86.907865 
2216.304629 86.901237 
2217.269079 86.895069 
2218.233528 86.889375 
2219.197977 86.883740 
2220.162427 86.877486 
2221.126876 86.871668 
2222.091325 86.865866 
2223.055775 86.859981 
2224.020224 86.853741 
2224.984674 86.848073 
2225.949123 86.843591 
2226.913572 86.839615 
2227.878022 86.834895 
2228.842471 86.830151 
2229.806920 86.825390 
2230.771370 86.820989 
2231.735819 86.816424 
2232.700268 86.811969 
2233.664718 86.806927 
2234.629167 86.802204 
2235.593616 86.796926 
2236.558066 86.791797 
2237.522515 86.787394 
2238.486965 86.784006 
2239.451414 86.780427 
2240.415863 86.776606 
2241.380313 86.772754 
2242.344762 86.769385 
2243.309211 86.765612 
2244.273661 86.762179 
2245.238110 86.759124 
2246.202559 86.756613 
2247.167009 86.754129 
2248.131458 86.752062 
2249.095908 86.749814 
2250.060357 86.748102 
2251.024806 86.746251 
2251.989256 86.744054 
2252.953705 86.741617 
2253.918154 86.739869 
2254.882604 86.737897 
2255.847053 86.735743 
2256.811502 86.733191 
2257.775952 86.731446 
2258.740401 86.730391 
2259.704850 86.729399 
2260.669300 86.727782 
2261.633749 86.726430 
2262.598199 86.725118 
2263.562648 86.724514 
2264.527097 86.723183 
2265.491547 86.721864 
2266.455996 86.720190 
2267.420445 86.718985 
2268.384895 86.716750 
2269.349344 86.714826 
2270.313793 86.712515 
2271.278243 86.709954 
2272.242692 86.706859 
2273.207142 86.703614 
2274.171591 86.700232 
2275.136040 86.697255 
2276.100490 86.693631 
2277.064939 86.690584 
2278.029388 86.686875 
2278.993838 86.684391 
2279.958287 86.681139 
2280.922736 86.678484 
2281.887186 86.675364 
2282.851635 86.672761 
2283.816084 86.670492 
2284.780534 86.667108 
2285.744983 86.664718 
2286.709433 86.661537 
2287.673882 86.658852 
2288.638331 86.655359 
2289.602781 86.651810 
2290.567230 86.649048 
2291.531679 86.645139 
2292.496129 86.642960 
2293.460578 86.637192 
2294.425027 86.635550 
2295.389477 86.629881 
2296.353926 86.629257 
2297.318376 86.623002 
2298.282825 86.621551 
2299.247274 86.615771 
2300.211724 86.613631 
2301.176173 86.606489 
2302.140622 86.602493 
2303.105072 86.593858 
2304.069521 86.587492 
2305.033970 86.578306 
2305.998420 86.570504 
2306.962869 86.561398 
2307.927318 86.553060 
2308.891768 86.544066 
2309.856217 86.536142 
2310.820667 86.527933 
2311.785116 86.521635 
2312.749565 86.514946 
2313.714015 86.508583 
2314.678464 86.501143 
2315.642913 86.493924 
2316.607363 86.487608 
2317.571812 86.481036 
2318.536261 86.477667 
2319.500711 86.473909 
2320.465160 86.469295 
2321.429610 86.463549 
2322.394059 86.460770 
2323.358508 86.457018 
2324.322958 86.452394 
2325.287407 86.448760 
2326.251856 86.443665 
2327.216306 86.442044 
2328.180755 86.436416 
2329.145204 86.434346 
2330.109654 86.427142 
2331.074103 86.424953 
2332.038552 86.421076 
2333.003002 86.426736 
2333.967451 86.429824 
2334.931901 86.435159 
2335.896350 86.434072 
2336.860799 86.435339 
2337.825249 86.433645 
2338.789698 86.431913 
2339.754147 86.426727 
2340.718597 86.422588 
2341.683046 86.417392 
2342.647495 86.411256 
2343.611945 86.404358 
2344.576394 86.399320 
2345.540844 86.394251 
2346.505293 86.388195 
2347.469742 86.382374 
2348.434192 86.377314 
2349.398641 86.373716 
2350.363090 86.370788 
2351.327540 86.369092 
2352.291989 86.365180 
2353.256438 86.360844 
2354.220888 86.358419 
2355.185337 86.356122 
2356.149786 86.351284 
2357.114236 86.347696 
2358.078685 86.344240 
2359.043135 86.341142 
2360.007584 86.337588 
2360.972033 86.334810 
2361.936483 86.333359 
2362.900932 86.334316 
2363.865381 86.337883 
2364.829831 86.345389 
2365.794280 86.353381 
2366.758729 86.356579 
2367.723179 86.356309 
2368.687628 86.354866 
2369.652078 86.353767 
2370.616527 86.351624 
2371.580976 86.346680 
2372.545426 86.341500 
2373.509875 86.336743 
2374.474324 86.330820 
2375.438774 86.323974 
2376.403223 86.317949 
2377.367672 86.312849 
2378.332122 86.306748 
2379.296571 86.299607 
2380.261020 86.292653 
2381.225470 86.285845 
2382.189919 86.279915 
2383.154369 86.274184 
2384.118818 86.268160 
2385.083267 86.261076 
2386.047717 86.254966 
2387.012166 86.248666 
2387.976615 86.241660 
2388.941065 86.235100 
2389.905514 86.229072 
2390.869963 86.221816 
2391.834413 86.214135 
2392.798862 86.206591 
2393.763312 86.200143 
2394.727761 86.194271 
2395.692210 86.188402 
2396.656660 86.183252 
2397.621109 86.179322 
2398.585558 86.175622 
2399.550008 86.171849 
2400.514457 86.167638 
2401.478906 86.163722 
2402.443356 86.160145 
2403.407805 86.156401 
2404.372254 86.151806 
2405.336704 86.147214 
2406.301153 86.143157 
2407.265603 86.138981 
2408.230052 86.134235 
2409.194501 86.129656 
2410.158951 86.124935 
2411.123400 86.119537 
2412.087849 86.113722 
2413.052299 86.108175 
2414.016748 86.102952 
2414.981197 86.098109 
2415.945647 86.092906 
2416.910096 86.087618 
2417.874546 86.082597 
2418.838995 86.077993 
2419.803444 86.072824 
2420.767894 86.067069 
2421.732343 86.061132 
2422.696792 86.055237 
2423.661242 86.048536 
2424.625691 86.041200 
2425.590140 86.033998 
2426.554590 86.027247 
2427.519039 86.020202 
2428.483488 86.012546 
2429.447938 86.004964 
2430.412387 85.997796 
2431.376837 85.990785 
2432.341286 85.983556 
2433.305735 85.976380 
2434.270185 85.970416 
2435.234634 85.965534 
2436.199083 85.960460 
2437.163533 85.955270 
2438.127982 85.950468 
2439.092431 85.945942 
2440.056881 85.940915 
2441.021330 85.935476 
2441.985780 85.930204 
2442.950229 85.924725 
2443.914678 85.918972 
2444.879128 85.913490 
2445.843577 85.908462 
2446.808026 85.903618 
2447.772476 85.898623 
2448.736925 85.893467 
2449.701374 85.888471 
2450.665824 85.883607 
2451.630273 85.878529 
2452.594722 85.873378 
2453.559172 85.868018 
2454.523621 85.862633 
2455.488071 85.857795 
2456.452520 85.852785 
2457.416969 85.847083 
2458.381419 85.841481 
2459.345868 85.836273 
2460.310317 85.830826 
2461.274767 85.824788 
2462.239216 85.818612 
2463.203665 85.812358 
2464.168115 85.805949 
2465.132564 85.799175 
2466.097014 85.792942 
2467.061463 85.787736 
2468.025912 85.782485 
2468.990362 85.776779 
2469.954811 85.771307 
2470.919260 85.765767 
2471.883710 85.760501 
2472.848159 85.755464 
2473.812608 85.750550 
2474.777058 85.745636 
2475.741507 85.740614 
2476.705956 85.735805 
2477.670406 85.731442 
2478.634855 85.727358 
2479.599305 85.723319 
2480.563754 85.719421 
2481.528203 85.715648 
2482.492653 85.711829 
2483.457102 85.708326 
2484.421551 85.705426 
2485.386001 85.702753 
2486.350450 85.700083 
2487.314899 85.697989 
2488.279349 85.696309 
2489.243798 85.694757 
2490.208248 85.693144 
2491.172697 85.691848 
2492.137146 85.690648 
2493.101596 85.689052 
2494.066045 85.686946 
2495.030494 85.684495 
2495.994944 85.682112 
2496.959393 85.679805 
2497.923842 85.677242 
2498.888292 85.674344 
2499.852741 85.670711 
2500.817190 85.666461 
2501.781640 85.662320 
2502.746089 85.658268 
2503.710539 85.654315 
2504.674988 85.650784 
2505.639437 85.647073 
2506.603887 85.643058 
2507.568336 85.639103 
2508.532785 85.635236 
2509.497235 85.631373 
2510.461684 85.627287 
2511.426133 85.623111 
2512.390583 85.618864 
2513.355032 85.614268 
2514.319482 85.609181 
2515.283931 85.603774 
2516.248380 85.598425 
2517.212830 85.593355 
2518.177279 85.587781 
2519.141728 85.581590 
2520.106178 85.575606 
2521.070627 85.569970 
2522.035076 85.564467 
2522.999526 85.558774 
2523.963975 85.553076 
2524.928424 85.547603 
2525.892874 85.542197 
2526.857323 85.536438 
2527.821773 85.530428 
2528.786222 85.524880 
2529.750671 85.519274 
2530.715121 85.512756 
2531.679570 85.505506 
2532.644019 85.498300 
2533.608469 85.491440 
2534.572918 85.484540 
2535.537367 85.477479 
2536.501817 85.470606 
2537.466266 85.463999 
2538.430716 85.457148 
2539.395165 85.450366 
2540.359614 85.444121 
2541.324064 85.438351 
2542.288513 85.432554 
2543.252962 85.426604 
2544.217412 85.420711 
2545.181861 85.415132 
2546.146310 85.409678 
2547.110760 85.404280 
2548.075209 85.398164 
2549.039658 85.391842 
2550.004108 85.385753 
2550.968557 85.379006 
2551.933007 85.372188 
2552.897456 85.366112 
2553.861905 85.360314 
2554.826355 85.354347 
2555.790804 85.348242 
2556.755253 85.342207 
2557.719703 85.336559 
2558.684152 85.331147 
2559.648601 85.325681 
2560.613051 85.320603 
2561.577500 85.316136 
2562.541950 85.311495 
2563.506399 85.306221 
2564.470848 85.301176 
2565.435298 85.296682 
2566.399747 85.292265 
2567.364196 85.287348 
2568.328646 85.282483 
2569.293095 85.277950 
2570.257544 85.273498 
2571.221994 85.268872 
2572.186443 85.264538 
2573.150892 85.260410 
2574.115342 85.256542 
2575.079791 85.252626 
2576.044241 85.248593 
2577.008690 85.245030 
2577.973139 85.242050 
2578.937589 85.238498 
2579.902038 85.234333 
2580.866487 85.229885 
2581.830937 85.225921 
2582.795386 85.222486 
2583.759835 85.218969 
2584.724285 85.215233 
2585.688734 85.211559 
2586.653184 85.207992 
2587.617633 85.204144 
2588.582082 85.199765 
2589.546532 85.195740 
2590.510981 85.192076 
2591.475430 85.188043 
2592.439880 85.183620 
2593.404329 85.179471 
2594.368778 85.175888 
2595.333228 85.172320 
2596.297677 85.168636 
2597.262126 85.165210 
2598.226576 85.161974 
2599.191025 85.158673 
2600.155475 85.154809 
2601.119924 85.150742 
2602.084373 85.146684 
2603.048823 85.143134 
2604.013272 85.139522 
2604.977721 85.135768 
2605.942171 85.132062 
2606.906620 85.128285 
2607.871069 85.124009 
2608.835519 85.119372 
2609.799968 85.114823 
2610.764418 85.110235 
2611.728867 85.105279 
2612.693316 85.100192 
2613.657766 85.095293 
2614.622215 85.091148 
2615.586664 85.087109 
2616.551114 85.082422 
2617.515563 85.077617 
2618.480012 85.073407 
2619.444462 85.069159 
2620.408911 85.063941 
2621.373360 85.057635 
2622.337810 85.051308 
2623.302259 85.045335 
2624.266709 85.039461 
2625.231158 85.033431 
2626.195607 85.027444 
2627.160057 85.021651 
2628.124506 85.015791 
2629.088955 85.009463 
2630.053405 85.003039 
2631.017854 84.996744 
2631.982303 84.990568 
2632.946753 84.983935 
2633.911202 84.977281 
2634.875652 84.971088 
2635.840101 84.965774 
2636.804550 84.960100 
2637.769000 84.954338 
2638.733449 84.948826 
2639.697898 84.943086 
2640.662348 84.936569 
2641.626797 84.929477 
2642.591246 84.922430 
2643.555696 84.915595 
2644.520145 84.909159 
2645.484594 84.902741 
2646.449044 84.896336 
2647.413493 84.890463 
2648.377943 84.884182 
2649.342392 84.877706 
2650.306841 84.871522 
2651.271291 84.865423 
2652.235740 84.858851 
2653.200189 84.851770 
2654.164639 84.844674 
2655.129088 84.838172 
2656.093537 84.832128 
2657.057987 84.825860 
2658.022436 84.819259 
2658.986886 84.812871 
2659.951335 84.806567 
2660.915784 84.799954 
2661.880234 84.792834 
2662.844683 84.785893 
2663.809132 84.779408 
2664.773582 84.773000 
2665.738031 84.766442 
2666.702480 84.760175 
2667.666930 84.754791 
2668.631379 84.750015 
2669.595828 84.744447 
2670.560278 84.738685 
2671.524727 84.733512 
2672.489177 84.728286 
2673.453626 84.722485 
2674.418075 84.717159 
2675.382525 84.712279 
2676.346974 84.707515 
2677.311423 84.702688 
2678.275873 84.697322 
2679.240322 84.692027 
2680.204771 84.687094 
2681.169221 84.681668 
2682.133670 84.675890 
2683.098120 84.670104 
2684.062569 84.664891 
2685.027018 84.659709 
2685.991468 84.654173 
2686.955917 84.648766 
2687.920366 84.644066 
2688.884816 84.639589 
2689.849265 84.635061 
2690.813714 84.630425 
2691.778164 84.625467 
2692.742613 84.620293 
2693.707062 84.615281 
2694.671512 84.610249 
2695.635961 84.605480 
2696.600411 84.601094 
2697.564860 84.596833 
2698.529309 84.592438 
2699.493759 84.587876 
2700.458208 84.583288 
2701.422657 84.578458 
2702.387107 84.573741 
2703.351556 84.569449 
2704.316005 84.565261 
2705.280455 84.560661 
2706.244904 84.555944 
2707.209354 84.551582 
2708.173803 84.547042 
2709.138252 84.542673 
2710.102702 84.538383 
2711.067151 84.534354 
2712.031600 84.530631 
2712.996050 84.526532 
2713.960499 84.521927 
2714.924948 84.517309 
2715.889398 84.512983 
2716.853847 84.509313 
2717.818296 84.505197 
2718.782746 84.500528 
2719.747195 84.495922 
2720.711645 84.491088 
2721.676094 84.485618 
2722.640543 84.480286 
2723.604993 84.475093 
2724.569442 84.469805 
2725.533891 84.464936 
2726.498341 84.460358 
2727.462790 84.455139 
2728.427239 84.449915 
2729.391689 84.444543 
2730.356138 84.438904 
2731.320588 84.432959 
2732.285037 84.426402 
2733.249486 84.420153 
2734.213936 84.414600 
2735.178385 84.408784 
2736.142834 84.402537 
2737.107284 84.396611 
2738.071733 84.391022 
2739.036182 84.385354 
2740.000632 84.379310 
2740.965081 84.373462 
2741.929530 84.368297 
2742.893980 84.363027 
2743.858429 84.357554 
2744.822879 84.351266 
2745.787328 84.344536 
2746.751777 84.338011 
2747.716227 84.331445 
2748.680676 84.324590 
2749.645125 84.317497 
2750.609575 84.309733 
2751.574024 84.301598 
2752.538473 84.293152 
2753.502923 84.284813 
2754.467372 84.276791 
2755.431822 84.268946 
2756.396271 84.261102 
2757.360720 84.253306 
2758.325170 84.245887 
2759.289619 84.238739 
2760.254068 84.231420 
2761.218518 84.224606 
2762.182967 84.217846 
2763.147416 84.211115 
2764.111866 84.204229 
2765.076315 84.197236 
2766.040764 84.190881 
2767.005214 84.184535 
2767.969663 84.177794 
2768.934113 84.171436 
2769.898562 84.165174 
2770.863011 84.158192 
2771.827461 84.150486 
2772.791910 84.142943 
2773.756359 84.136053 
2774.720809 84.129515 
2775.685258 84.122639 
2776.649707 84.115741 
2777.614157 84.108759 
2778.578606 84.102088 
2779.543056 84.095257 
2780.507505 84.087680 
2781.471954 84.080457 
2782.436404 84.074441 
2783.400853 84.068528 
2784.365302 84.062402 
2785.329752 84.056148 
2786.294201 84.050251 
2787.258650 84.044590 
2788.223100 84.039002 
2789.187549 84.032989 
2790.151998 84.026806 
2791.116448 84.021199 
2792.080897 84.015487 
2793.045347 84.009149 
2794.009796 84.003350 
2794.974245 83.997807 
2795.938695 83.992156 
2796.903144 83.986264 
2797.867593 83.980860 
2798.832043 83.975449 
2799.796492 83.969664 
2800.760941 83.963765 
2801.725391 83.957733 
2802.689840 83.951028 
2803.654290 83.943842 
2804.618739 83.936748 
2805.583188 83.930064 
2806.547638 83.923725 
2807.512087 83.918176 
2808.476536 83.912376 
2809.440986 83.905887 
2810.405435 83.898934 
2811.369884 83.891987 
2812.334334 83.885166 
2813.298783 83.878405 
2814.263232 83.872013 
2815.227682 83.865924 
2816.192131 83.859251 
2817.156581 83.852042 
2818.121030 83.844610 
2819.085479 83.837851 
2820.049929 83.830813 
2821.014378 83.822504 
2821.978827 83.813738 
2822.943277 83.806018 
2823.907726 83.798611 
2824.872175 83.790833 
2825.836625 83.782679 
2826.801074 83.774576 
2827.765524 83.765537 
2828.729973 83.755521 
2829.694422 83.744770 
2830.658872 83.733769 
2831.623321 83.722722 
2832.587770 83.711823 
2833.552220 83.700788 
2834.516669 83.689314 
2835.481118 83.677052 
2836.445568 83.663849 
2837.410017 83.649763 
2838.374466 83.634463 
2839.338916 83.617845 
2840.303365 83.600099 
2841.267815 83.580324 
2842.232264 83.558953 
2843.196713 83.537270 
2844.161163 83.516081 
2845.125612 83.495098 
2846.090061 83.474698 
2847.054511 83.455181 
2848.018960 83.437061 
2848.983409 83.419713 
2849.947859 83.403298 
2850.912308 83.388532 
2851.876758 83.375606 
2852.841207 83.363467 
2853.805656 83.352733 
2854.770106 83.343966 
2855.734555 83.336762 
2856.699004 83.330416 
2857.663454 83.325418 
2858.627903 83.321756 
2859.592352 83.319453 
2860.556802 83.318179 
2861.521251 83.318027 
2862.485700 83.318986 
2863.450150 83.321190 
2864.414599 83.324225 
2865.379049 83.326732 
2866.343498 83.328121 
2867.307947 83.328658 
2868.272397 83.327906 
2869.236846 83.326125 
2870.201295 83.323563 
2871.165745 83.319592 
2872.130194 83.314557 
2873.094643 83.309027 
2874.059093 83.302504 
2875.023542 83.295657 
2875.987992 83.289240 
2876.952441 83.283141 
2877.916890 83.276188 
2878.881340 83.268834 
2879.845789 83.261611 
2880.810238 83.254471 
2881.774688 83.246708 
2882.739137 83.238663 
2883.703586 83.230704 
2884.668036 83.222882 
2885.632485 83.214489 
2886.596934 83.205680 
2887.561384 83.196611 
2888.525833 83.187716 
2889.490283 83.178980 
2890.454732 83.170224 
2891.419181 83.161107 
2892.383631 83.151901 
2893.348080 83.142447 
2894.312529 83.132871 
2895.276979 83.122896 
2896.241428 83.112381 
2897.205877 83.101569 
2898.170327 83.090836 
2899.134776 83.080212 
2900.099226 83.069779 
2901.063675 83.059476 
2902.028124 83.049307 
2902.992574 83.038538 
2903.957023 83.027073 
2904.921472 83.014810 
2905.885922 83.001545 
2906.850371 82.986782 
2907.814820 82.971082 
2908.779270 82.954335 
2909.743719 82.936033 
2910.708168 82.916114 
2911.672618 82.895404 
2912.637067 82.874375 
2913.601517 82.852539 
2914.565966 82.829558 
2915.530415 82.806240 
2916.494865 82.783703 
2917.459314 82.761761 
2918.423763 82.739976 
2919.388213 82.719079 
2920.352662 82.699747 
2921.317111 82.682360 
2922.281561 82.666917 
2923.246010 82.653833 
2924.210460 82.643061 
2925.174909 82.635260 
2926.139358 82.630022 
2927.103808 82.627599 
2928.068257 82.628038 
2929.032706 82.631710 
2929.997156 82.638658 
2930.961605 82.648582 
2931.926054 82.660323 
2932.890504 82.673758 
2933.854953 82.689255 
2934.819402 82.705230 
2935.783852 82.721021 
2936.748301 82.737439 
2937.712751 82.753378 
2938.677200 82.768194 
2939.641649 82.781249 
2940.606099 82.792942 
2941.570548 82.802989 
2942.534997 82.810609 
2943.499447 82.816074 
2944.463896 82.819662 
2945.428345 82.821691 
2946.392795 82.822378 
2947.357244 82.821157 
2948.321694 82.818739 
2949.286143 82.815664 
2950.250592 82.811216 
2951.215042 82.805917 
2952.179491 82.800064 
2953.143940 82.793942 
2954.108390 82.787965 
2955.072839 82.781762 
2956.037288 82.775519 
2957.001738 82.769228 
2957.966187 82.764184 
2958.930636 82.760261 
2959.895086 82.756842 
2960.859535 82.753889 
2961.823985 82.752034 
2962.788434 82.751173 
2963.752883 82.750659 
2964.717333 82.750463 
2965.681782 82.751924 
2966.646231 82.754559 
2967.610681 82.756884 
2968.575130 82.759239 
2969.539579 82.762477 
2970.504029 82.765037 
2971.468478 82.766216 
2972.432928 82.766558 
2973.397377 82.766792 
2974.361826 82.766302 
2975.326276 82.765116 
2976.290725 82.763764 
2977.255174 82.762566 
2978.219624 82.761017 
2979.184073 82.758606 
2980.148522 82.755189 
2981.112972 82.751736 
2982.077421 82.748342 
2983.041870 82.744386 
2984.006320 82.740225 
2984.970769 82.735621 
2985.935219 82.730901 
2986.899668 82.726703 
2987.864117 82.722228 
2988.828567 82.717068 
2989.793016 82.711982 
2990.757465 82.707891 
2991.721915 82.703487 
2992.686364 82.697865 
2993.650813 82.691712 
2994.615263 82.686194 
2995.579712 82.681232 
2996.544162 82.674939 
2997.508611 82.669677 
2998.473060 82.666614 
2999.437510 82.662608 
3000.401959 82.657663 
3001.366408 82.652523 
3002.330858 82.647307 
3003.295307 82.642236 
3004.259756 82.637576 
3005.224206 82.632950 
3006.188655 82.627868 
3007.153104 82.622580 
3008.117554 82.618425 
3009.082003 82.614118 
3010.046453 82.609016 
3011.010902 82.604095 
3011.975351 82.599103 
3012.939801 82.594413 
3013.904250 82.590579 
3014.868699 82.585711 
3015.833149 82.578956 
3016.797598 82.572791 
3017.762047 82.567611 
3018.726497 82.562232 
3019.690946 82.557185 
3020.655396 82.551744 
3021.619845 82.545314 
3022.584294 82.538515 
3023.548744 82.532040 
3024.513193 82.524717 
3025.477642 82.516695 
3026.442092 82.509481 
3027.406541 82.503541 
3028.370990 82.498111 
3029.335440 82.492641 
3030.299889 82.488777 
3031.264338 82.485309 
3032.228788 82.479528 
3033.193237 82.472607 
3034.157687 82.466342 
3035.122136 82.460723 
3036.086585 82.455800 
3037.051035 82.450459 
3038.015484 82.444189 
3038.979933 82.438194 
3039.944383 82.431508 
3040.908832 82.424609 
3041.873281 82.417901 
3042.837731 82.411092 
3043.802180 82.404465 
3044.766630 82.396956 
3045.731079 82.388380 
3046.695528 82.380336 
3047.659978 82.371664 
3048.624427 82.361222 
3049.588876 82.352480 
3050.553326 82.343778 
3051.517775 82.334212 
3052.482224 82.326306 
3053.446674 82.318435 
3054.411123 82.309763 
3055.375572 82.300780 
3056.340022 82.292203 
3057.304471 82.283585 
3058.268921 82.275216 
3059.233370 82.267287 
3060.197819 82.259350 
3061.162269 82.250902 
3062.126718 82.241886 
3063.091167 82.232224 
3064.055617 82.222668 
3065.020066 82.213271 
3065.984515 82.203793 
3066.948965 82.195264 
3067.913414 82.187799 
3068.877864 82.180765 
3069.842313 82.173559 
3070.806762 82.166131 
3071.771212 82.158006 
3072.735661 82.149110 
3073.700110 82.141788 
3074.664560 82.135751 
3075.629009 82.128567 
3076.593458 82.120307 
3077.557908 82.111445 
3078.522357 82.102434 
3079.486806 82.093023 
3080.451256 82.081654 
3081.415705 82.069783 
3082.380155 82.059904 
3083.344604 82.050414 
3084.309053 82.041543 
3085.273503 82.033323 
3086.237952 82.023992 
3087.202401 82.013132 
3088.166851 82.001204 
3089.131300 81.989581 
3090.095749 81.978065 
3091.060199 81.965867 
3092.024648 81.953234 
3092.989098 81.941750 
3093.953547 81.930858 
3094.917996 81.920783 
3095.882446 81.910888 
3096.846895 81.900814 
3097.811344 81.891182 
3098.775794 81.881774 
3099.740243 81.871807 
3100.704692 81.862724 
3101.669142 81.855002 
3102.633591 81.846681 
3103.598040 81.837817 
3104.562490 81.830715 
3105.526939 81.825352 
3106.491389 81.818715 
3107.455838 81.811338 
3108.420287 81.804851 
3109.384737 81.797637 
3110.349186 81.789432 
3111.313635 81.780257 
3112.278085 81.770910 
3113.242534 81.762844 
3114.206983 81.756594 
3115.171433 81.750365 
3116.135882 81.743918 
3117.100332 81.735563 
3118.064781 81.726273 
3119.029230 81.717506 
3119.993680 81.708006 
3120.958129 81.697912 
3121.922578 81.688381 
3122.887028 81.679072 
3123.851477 81.670010 
3124.815926 81.661423 
3125.780376 81.653843 
3126.744825 81.645845 
3127.709274 81.637251 
3128.673724 81.627990 
3129.638173 81.619276 
3130.602623 81.611458 
3131.567072 81.602762 
3132.531521 81.592212 
3133.495971 81.582785 
3134.460420 81.574247 
3135.424869 81.564637 
3136.389319 81.555881 
3137.353768 81.548692 
3138.318217 81.540934 
3139.282667 81.531967 
3140.247116 81.523880 
3141.211566 81.516811 
3142.176015 81.508227 
3143.140464 81.499191 
3144.104914 81.490767 
3145.069363 81.483089 
3146.033812 81.474586 
3146.998262 81.465336 
3147.962711 81.454956 
3148.927160 81.443478 
3149.891610 81.431405 
3150.856059 81.420953 
3151.820508 81.410795 
3152.784958 81.399721 
3153.749407 81.388219 
3154.713857 81.377539 
3155.678306 81.366958 
3156.642755 81.355570 
3157.607205 81.343719 
3158.571654 81.332424 
3159.536103 81.320714 
3160.500553 81.308898 
3161.465002 81.296605 
3162.429451 81.282671 
3163.393901 81.268165 
3164.358350 81.253208 
3165.322800 81.238248 
3166.287249 81.224341 
3167.251698 81.211527 
3168.216148 81.199492 
3169.180597 81.186810 
3170.145046 81.174182 
3171.109496 81.161920 
3172.073945 81.149508 
3173.038394 81.136939 
3174.002844 81.124796 
3174.967293 81.112453 
3175.931742 81.099891 
3176.896192 81.087564 
3177.860641 81.074942 
3178.825091 81.062314 
3179.789540 81.050228 
3180.753989 81.037909 
3181.718439 81.024650 
3182.682888 81.011066 
3183.647337 80.998137 
3184.611787 80.984828 
3185.576236 80.971756 
3186.540685 80.958617 
3187.505135 80.945689 
3188.469584 80.932338 
3189.434034 80.918873 
3190.398483 80.905831 
3191.362932 80.893287 
3192.327382 80.880335 
3193.291831 80.866392 
3194.256280 80.850309 
3195.220730 80.835080 
3196.185179 80.822086 
3197.149628 80.808911 
3198.114078 80.794487 
3199.078527 80.781164 
3200.042976 80.768640 
3201.007426 80.755367 
3201.971875 80.742266 
3202.936325 80.730668 
3203.900774 80.718499 
3204.865223 80.706434 
3205.829673 80.694624 
3206.794122 80.683300 
3207.758571 80.672517 
3208.723021 80.661857 
3209.687470 80.651105 
3210.651919 80.639443 
3211.616369 80.626924 
3212.580818 80.614677 
3213.545268 80.601810 
3214.509717 80.587771 
3215.474166 80.574331 
3216.438616 80.561899 
3217.403065 80.549807 
3218.367514 80.538914 
3219.331964 80.528514 
3220.296413 80.517489 
3221.260862 80.506179 
3222.225312 80.495548 
3223.189761 80.484346 
3224.154210 80.472298 
3225.118660 80.459215 
3226.083109 80.445584 
3227.047559 80.433252 
3228.012008 80.423068 
3228.976457 80.409763 
3229.940907 80.395334 
3230.905356 80.383211 
3231.869805 80.373650 
3232.834255 80.364007 
3233.798704 80.353610 
3234.763153 80.343500 
3235.727603 80.333005 
3236.692052 80.322035 
3237.656502 80.310275 
3238.620951 80.297043 
3239.585400 80.285836 
3240.549850 80.275085 
3241.514299 80.262966 
3242.478748 80.250264 
3243.443198 80.237994 
3244.407647 80.225644 
3245.372096 80.213490 
3246.336546 80.200857 
3247.300995 80.188784 
3248.265444 80.177963 
3249.229894 80.167017 
3250.194343 80.155938 
3251.158793 80.144510 
3252.123242 80.132130 
3253.087691 80.119318 
3254.052141 80.107008 
3255.016590 80.095473 
3255.981039 80.084083 
3256.945489 80.072632 
3257.909938 80.059977 
3258.874387 80.049209 
3259.838837 80.039052 
3260.803286 80.026205 
3261.767736 80.013213 
3262.732185 80.003847 
3263.696634 79.995656 
3264.661084 79.985835 
3265.625533 79.974867 
3266.589982 79.963429 
3267.554432 79.951890 
3268.518881 79.940114 
3269.483330 79.927679 
3270.447780 79.914878 
3271.412229 79.903499 
3272.376678 79.892970 
3273.341128 79.879382 
3274.305577 79.865048 
3275.270027 79.851659 
3276.234476 79.838455 
3277.198925 79.824554 
3278.163375 79.811299 
3279.127824 79.798536 
3280.092273 79.786328 
3281.056723 79.773852 
3282.021172 79.760882 
3282.985621 79.748372 
3283.950071 79.735821 
3284.914520 79.722983 
3285.878970 79.710692 
3286.843419 79.698051 
3287.807868 79.685406 
3288.772318 79.673099 
3289.736767 79.661010 
3290.701216 79.649460 
3291.665666 79.639809 
3292.630115 79.628197 
3293.594564 79.615747 
3294.559014 79.606022 
3295.523463 79.595983 
3296.487912 79.584165 
3297.452362 79.571118 
3298.416811 79.557438 
3299.381261 79.542906 
3300.345710 79.527614 
3301.310159 79.512071 
3302.274609 79.496757 
3303.239058 79.481128 
3304.203507 79.464359 
3305.167957 79.445958 
3306.132406 79.427101 
3307.096855 79.408759 
3308.061305 79.390202 
3309.025754 79.372300 
3309.990204 79.355669 
3310.954653 79.339378 
3311.919102 79.322757 
3312.883552 79.306176 
3313.848001 79.288777 
3314.812450 79.270875 
3315.776900 79.252563 
3316.741349 79.233589 
3317.705798 79.214560 
3318.670248 79.194634 
3319.634697 79.174241 
3320.599146 79.153988 
3321.563596 79.134804 
3322.528045 79.117921 
3323.492495 79.101468 
3324.456944 79.084766 
3325.421393 79.067898 
3326.385843 79.052629 
3327.350292 79.038025 
3328.314741 79.022326 
3329.279191 79.005426 
3330.243640 78.987524 
3331.208089 78.969406 
3332.172539 78.950656 
3333.136988 78.931533 
3334.101438 78.913485 
3335.065887 78.896088 
3336.030336 78.878400 
3336.994786 78.860056 
3337.959235 78.841042 
3338.923684 78.821860 
3339.888134 78.801805 
3340.852583 78.781574 
3341.817032 78.761713 
3342.781482 78.741541 
3343.745931 78.720089 
3344.710380 78.699129 
3345.674830 78.677817 
3346.639279 78.655463 
3347.603729 78.633294 
3348.568178 78.610219 
3349.532627 78.585827 
3350.497077 78.560903 
3351.461526 78.535787 
3352.425975 78.511913 
3353.390425 78.490154 
3354.354874 78.471022 
3355.319323 78.453522 
3356.283773 78.435074 
3357.248222 78.416034 
3358.212672 78.396060 
3359.177121 78.375789 
3360.141570 78.355149 
3361.106020 78.334318 
3362.070469 78.312829 
3363.034918 78.291151 
3363.999368 78.270025 
3364.963817 78.249490 
3365.928266 78.229454 
3366.892716 78.210321 
3367.857165 78.190597 
3368.821614 78.169359 
3369.786064 78.146722 
3370.750513 78.123991 
3371.714963 78.100819 
3372.679412 78.076070 
3373.643861 78.051891 
3374.608311 78.029536 
3375.572760 78.008738 
3376.537209 77.986035 
3377.501659 77.962048 
3378.466108 77.939598 
3379.430557 77.918459 
3380.395007 77.897262 
3381.359456 77.873090 
3382.323906 77.850329 
3383.288355 77.830748 
3384.252804 77.813142 
3385.217254 77.797010 
3386.181703 77.783223 
3387.146152 77.770064 
3388.110602 77.755891 
3389.075051 77.741783 
3390.039500 77.727436 
3391.003950 77.712080 
3391.968399 77.697572 
3392.932848 77.684542 
3393.897298 77.671640 
3394.861747 77.658091 
3395.826197 77.645216 
3396.790646 77.632887 
3397.755095 77.620601 
3398.719545 77.607640 
3399.683994 77.594057 
3400.648443 77.579667 
3401.612893 77.564959 
3402.577342 77.551215 
3403.541791 77.537960 
3404.506241 77.521868 
3405.470690 77.504824 
3406.435140 77.488981 
3407.399589 77.474070 
3408.364038 77.459326 
3409.328488 77.442985 
3410.292937 77.428077 
3411.257386 77.416190 
3412.221836 77.402087 
3413.186285 77.386959 
3414.150734 77.373904 
3415.115184 77.364662 
3416.079633 77.356345 
3417.044082 77.347583 
3418.008532 77.339714 
3418.972981 77.333333 
3419.937431 77.327260 
3420.901880 77.321879 
3421.866329 77.318042 
3422.830779 77.314497 
3423.795228 77.311113 
3424.759677 77.309576 
3425.724127 77.308530 
3426.688576 77.303996 
3427.653025 77.300318 
3428.617475 77.299714 
3429.581924 77.301625 
3430.546374 77.302599 
3431.510823 77.295650 
3432.475272 77.290369 
3433.439722 77.287801 
3434.404171 77.286248 
3435.368620 77.284515 
3436.333070 77.281516 
3437.297519 77.277008 
3438.261968 77.274659 
3439.226418 77.273658 
3440.190867 77.272997 
3441.155316 77.272551 
3442.119766 77.271326 
3443.084215 77.269951 
3444.048665 77.271207 
3445.013114 77.273046 
3445.977563 77.275552 
3446.942013 77.276400 
3447.906462 77.276758 
3448.870911 77.278356 
3449.835361 77.281430 
3450.799810 77.284826 
3451.764259 77.289093 
3452.728709 77.296512 
3453.693158 77.306498 
3454.657608 77.316360 
3455.622057 77.325683 
3456.586506 77.334419 
3457.550956 77.342904 
3458.515405 77.349194 
3459.479854 77.353666 
3460.444304 77.362209 
3461.408753 77.371292 
3462.373202 77.378453 
3463.337652 77.383906 
3464.302101 77.388402 
3465.266550 77.400093 
3466.231000 77.407831 
3467.195449 77.412857 
3468.159899 77.420046 
3469.124348 77.427404 
3470.088797 77.435459 
3471.053247 77.445491 
3472.017696 77.452862 
3472.982145 77.458297 
3473.946595 77.466235 
3474.911044 77.474294 
3475.875493 77.482865 
3476.839943 77.492400 
3477.804392 77.500795 
3478.768842 77.508244 
3479.733291 77.514990 
3480.697740 77.522060 
3481.662190 77.530342 
3482.626639 77.541539 
3483.591088 77.553435 
3484.555538 77.567813 
3485.519987 77.585460 
3486.484436 77.600846 
3487.448886 77.608994 
3488.413335 77.615666 
3489.377784 77.623397 
3490.342234 77.633514 
3491.306683 77.646721 
3492.271133 77.663144 
3493.235582 77.673919 
3494.200031 77.678976 
3495.164481 77.686442 
3496.128930 77.695052 
3497.093379 77.703226 
3498.057829 77.710080 
3499.022278 77.716826 
3499.986727 77.728606 
3500.951177 77.743280 
3501.915626 77.756322 
3502.880076 77.768301 
3503.844525 77.779115 
3504.808974 77.790855 
3505.773424 77.807117 
3506.737873 77.821452 
3507.702322 77.829095 
3508.666772 77.839792 
3509.631221 77.853771 
3510.595670 77.868039 
3511.560120 77.878120 
3512.524569 77.887506 
3513.489018 77.897121 
3514.453468 77.912469 
3515.417917 77.928083 
3516.382367 77.942150 
3517.346816 77.956472 
3518.311265 77.971565 
3519.275715 77.986092 
3520.240164 77.995033 
3521.204613 78.005764 
3522.169063 78.023960 
3523.133512 78.043435 
3524.097961 78.061991 
3525.062411 78.076919 
3526.026860 78.088759 
3526.991310 78.103467 
3527.955759 78.124265 
3528.920208 78.141019 
3529.884658 78.158325 
3530.849107 78.174198 
3531.813556 78.187272 
3532.778006 78.205275 
3533.742455 78.226753 
3534.706904 78.252509 
3535.671354 78.273817 
3536.635803 78.287065 
3537.600252 78.303488 
3538.564702 78.318515 
3539.529151 78.332396 
3540.493601 78.348455 
3541.458050 78.368339 
3542.422499 78.388571 
3543.386949 78.405828 
3544.351398 78.414325 
3545.315847 78.428845 
3546.280297 78.448353 
3547.244746 78.467988 
3548.209195 78.488472 
3549.173645 78.521790 
3550.138094 78.538433 
3551.102544 78.543736 
3552.066993 78.537709 
3553.031442 78.529824 
3553.995892 78.543116 
3554.960341 78.563011 
3555.924790 78.582584 
3556.889240 78.603857 
3557.853689 78.623805 
3558.818138 78.639787 
3559.782588 78.655593 
3560.747037 78.671451 
3561.711486 78.684241 
3562.675936 78.704190 
3563.640385 78.722051 
3564.604835 78.738517 
3565.569284 78.766299 
3566.533733 78.793997 
3567.498183 78.814918 
3568.462632 78.833366 
3569.427081 78.866879 
3570.391531 78.897897 
3571.355980 78.913021 
3572.320429 78.925188 
3573.284879 78.926651 
3574.249328 78.943489 
3575.213778 78.970842 
3576.178227 79.001029 
3577.142676 79.019137 
3578.107126 79.046112 
3579.071575 79.069468 
3580.036024 79.078723 
3581.000474 79.098665 
3581.964923 79.116314 
3582.929372 79.111218 
3583.893822 79.118744 
3584.858271 79.127524 
3585.822720 79.150315 
3586.787170 79.184061 
3587.751619 79.207928 
3588.716069 79.237361 
3589.680518 79.273607 
3590.644967 79.299433 
3591.609417 79.314377 
3592.573866 79.339598 
3593.538315 79.339582 
3594.502765 79.352989 
3595.467214 79.390813 
3596.431663 79.402118 
3597.396113 79.403788 
3598.360562 79.417283 
3599.325012 79.421723 
3600.289461 79.444155 
3601.253910 79.473398 
3602.218360 79.484970 
3603.182809 79.472386 
3604.147258 79.447697 
3605.111708 79.447279 
3606.076157 79.463135 
3607.040606 79.500941 
3608.005056 79.533306 
3608.969505 79.564304 
3609.933954 79.584741 
3610.898404 79.624067 
3611.862853 79.677323 
3612.827303 79.680073 
3613.791752 79.663113 
3614.756201 79.665204 
3615.720651 79.689262 
3616.685100 79.728708 
3617.649549 79.750274 
3618.613999 79.771296 
3619.578448 79.807155 
3620.542897 79.847259 
3621.507347 79.885658 
3622.471796 79.912751 
3623.436246 79.928323 
3624.400695 79.947020 
3625.365144 79.972344 
3626.329594 79.981586 
3627.294043 80.012191 
3628.258492 80.039250 
3629.222942 80.046611 
3630.187391 80.075371 
3631.151840 80.086991 
3632.116290 80.088375 
3633.080739 80.105047 
3634.045188 80.088214 
3635.009638 80.049166 
3635.974087 80.026267 
3636.938537 80.028169 
3637.902986 80.060169 
3638.867435 80.102631 
3639.831885 80.126306 
3640.796334 80.119359 
3641.760783 80.125928 
3642.725233 80.136865 
3643.689682 80.146127 
3644.654131 80.135132 
3645.618581 80.090278 
3646.583030 80.084597 
3647.547480 80.122366 
3648.511929 80.151759 
3649.476378 80.163333 
3650.440828 80.162555 
3651.405277 80.178824 
3652.369726 80.205061 
3653.334176 80.215791 
3654.298625 80.212697 
3655.263074 80.193921 
3656.227524 80.198359 
3657.191973 80.219931 
3658.156422 80.261020 
3659.120872 80.251061 
3660.085321 80.212652 
3661.049771 80.200373 
3662.014220 80.199838 
3662.978669 80.185242 
3663.943119 80.141111 
3664.907568 80.120565 
3665.872017 80.109370 
3666.836467 80.091220 
3667.800916 80.086982 
3668.765365 80.101263 
3669.729815 80.123635 
3670.694264 80.141482 
3671.658714 80.152323 
3672.623163 80.114309 
3673.587612 80.094026 
3674.552062 80.113190 
3675.516511 80.111297 
3676.480960 80.109415 
3677.445410 80.117268 
3678.409859 80.128618 
3679.374308 80.141142 
3680.338758 80.152350 
3681.303207 80.163081 
3682.267656 80.175353 
3683.232106 80.189636 
3684.196555 80.206687 
3685.161005 80.209365 
3686.125454 80.190245 
3687.089903 80.179857 
3688.054353 80.184836 
3689.018802 80.212092 
3689.983251 80.227254 
3690.947701 80.222556 
3691.912150 80.183448 
3692.876599 80.172823 
3693.841049 80.189245 
3694.805498 80.210195 
3695.769948 80.206323 
3696.734397 80.178099 
3697.698846 80.179606 
3698.663296 80.185771 
3699.627745 80.186747 
3700.592194 80.189141 
3701.556644 80.193737 
3702.521093 80.196359 
3703.485542 80.187954 
3704.449992 80.175358 
3705.414441 80.156256 
3706.378890 80.149029 
3707.343340 80.137633 
3708.307789 80.129039 
3709.272239 80.137727 
3710.236688 80.138877 
3711.201137 80.128476 
3712.165587 80.124507 
3713.130036 80.124795 
3714.094485 80.131223 
3715.058935 80.143428 
3716.023384 80.136423 
3716.987833 80.124569 
3717.952283 80.127350 
3718.916732 80.109241 
3719.881182 80.099171 
3720.845631 80.090814 
3721.810080 80.083424 
3722.774530 80.079094 
3723.738979 80.085800 
3724.703428 80.089316 
3725.667878 80.076193 
3726.632327 80.081022 
3727.596776 80.133173 
3728.561226 80.082528 
3729.525675 80.029211 
3730.490124 80.035249 
3731.454574 80.043097 
3732.419023 80.056252 
3733.383473 80.042010 
3734.347922 80.022669 
3735.312371 80.020008 
3736.276821 79.990210 
3737.241270 79.971086 
3738.205719 79.960028 
3739.170169 79.951756 
3740.134618 79.955745 
3741.099067 79.954977 
3742.063517 79.956270 
3743.027966 79.956695 
3743.992416 79.942409 
3744.956865 79.945681 
3745.921314 79.955776 
3746.885764 79.963326 
3747.850213 79.967290 
3748.814662 79.962752 
3749.779112 79.955172 
3750.743561 79.951759 
3751.708010 79.935731 
3752.672460 79.943098 
3753.636909 79.946935 
3754.601358 79.942814 
3755.565808 79.950576 
3756.530257 79.964460 
3757.494707 79.970796 
3758.459156 79.977100 
3759.423605 79.989916 
3760.388055 79.980589 
3761.352504 79.914185 
3762.316953 79.923422 
3763.281403 79.941349 
3764.245852 79.928846 
3765.210301 79.913576 
3766.174751 79.884412 
3767.139200 79.882548 
3768.103650 79.884074 
3769.068099 79.852670 
3770.032548 79.851945 
3770.996998 79.862632 
3771.961447 79.864606 
3772.925896 79.855792 
3773.890346 79.847857 
3774.854795 79.847716 
3775.819244 79.835502 
3776.783694 79.819615 
3777.748143 79.825707 
3778.712592 79.835019 
3779.677042 79.837467 
3780.641491 79.820065 
3781.605941 79.795787 
3782.570390 79.774577 
3783.534839 79.783555 
3784.499289 79.805781 
3785.463738 79.774477 
3786.428187 79.722883 
3787.392637 79.699679 
3788.357086 79.706897 
3789.321535 79.720168 
3790.285985 79.725908 
3791.250434 79.700534 
3792.214884 79.684747 
3793.179333 79.682882 
3794.143782 79.682739 
3795.108232 79.679916 
3796.072681 79.668536 
3797.037130 79.669081 
3798.001580 79.688971 
3798.966029 79.711779 
3799.930478 79.696288 
3800.894928 79.661399 
3801.859377 79.649371 
3802.823826 79.660499 
3803.788276 79.684349 
3804.752725 79.680302 
3805.717175 79.644522 
3806.681624 79.627257 
3807.646073 79.625276 
3808.610523 79.628484 
3809.574972 79.636146 
3810.539421 79.634856 
3811.503871 79.626080 
3812.468320 79.616159 
3813.432769 79.607959 
3814.397219 79.622818 
3815.361668 79.629749 
3816.326118 79.617517 
3817.290567 79.604824 
3818.255016 79.575274 
3819.219466 79.562999 
3820.183915 79.579863 
3821.148364 79.601451 
3822.112814 79.580723 
3823.077263 79.554960 
3824.041712 79.531984 
3825.006162 79.530461 
3825.970611 79.540086 
3826.935060 79.551208 
3827.899510 79.544122 
3828.863959 79.537099 
3829.828409 79.538879 
3830.792858 79.540869 
3831.757307 79.534547 
3832.721757 79.507701 
3833.686206 79.506070 
3834.650655 79.537094 
3835.615105 79.558481 
3836.579554 79.543212 
3837.544003 79.492136 
3838.508453 79.413786 
3839.472902 79.409959 
3840.437352 79.419657 
3841.401801 79.413315 
3842.366250 79.405038 
3843.330700 79.397708 
3844.295149 79.403507 
3845.259598 79.414368 
3846.224048 79.409316 
3847.188497 79.408844 
3848.152946 79.401219 
3849.117396 79.378709 
3850.081845 79.372590 
3851.046294 79.367856 
3852.010744 79.369198 
3852.975193 79.390381 
3853.939643 79.358160 
3854.904092 79.307818 
3855.868541 79.307915 
3856.832991 79.318455 
3857.797440 79.312854 
3858.761889 79.304977 
3859.726339 79.302885 
3860.690788 79.296257 
3861.655237 79.307470 
3862.619687 79.330907 
3863.584136 79.348642 
3864.548586 79.335298 
3865.513035 79.321554 
3866.477484 79.319103 
3867.441934 79.318021 
3868.406383 79.309244 
3869.370832 79.270054 
3870.335282 79.216667 
3871.299731 79.185462 
3872.264180 79.219063 
3873.228630 79.238883 
3874.193079 79.249028 
3875.157528 79.249030 
3876.121978 79.238348 
3877.086427 79.235110 
3878.050877 79.225605 
3879.015326 79.216571 
3879.979775 79.223032 
3880.944225 79.222991 
3881.908674 79.217076 
3882.873123 79.223197 
3883.837573 79.222524 
3884.802022 79.226591 
3885.766471 79.203655 
3886.730921 79.163861 
3887.695370 79.168322 
3888.659820 79.170391 
3889.624269 79.163327 
3890.588718 79.140633 
3891.553168 79.131178 
3892.517617 79.145823 
3893.482066 79.154832 
3894.446516 79.157452 
3895.410965 79.157686 
3896.375414 79.144852 
3897.339864 79.122933 
3898.304313 79.130248 
3899.268762 79.148996 
3900.233212 79.153054 
3901.197661 79.133308 
3902.162111 79.105300 
3903.126560 79.098322 
3904.091009 79.103467 
3905.055459 79.099750 
3906.019908 79.101883 
3906.984357 79.100799 
3907.948807 79.082666 
3908.913256 79.065502 
3909.877705 79.063371 
3910.842155 79.064796 
3911.806604 79.070858 
3912.771054 79.075439 
3913.735503 79.072529 
3914.699952 79.066474 
3915.664402 79.050494 
3916.628851 79.025807 
3917.593300 79.019650 
3918.557750 79.002798 
3919.522199 78.993953 
3920.486648 78.990245 
3921.451098 78.978169 
3922.415547 78.978650 
3923.379996 78.980779 
3924.344446 78.986302 
3925.308895 78.991979 
3926.273345 78.990463 
3927.237794 78.979403 
3928.202243 78.972653 
3929.166693 78.969081 
3930.131142 78.968835 
3931.095591 78.966765 
3932.060041 78.957420 
3933.024490 78.938388 
3933.988939 78.913466 
3934.953389 78.909265 
3935.917838 78.909544 
3936.882288 78.893566 
3937.846737 78.890233 
3938.811186 78.894573 
3939.775636 78.888176 
3940.740085 78.872246 
3941.704534 78.855842 
3942.668984 78.854353 
3943.633433 78.860980 
3944.597882 78.861327 
3945.562332 78.852173 
3946.526781 78.837526 
3947.491230 78.829862 
3948.455680 78.818081 
3949.420129 78.802861 
3950.384579 78.803880 
3951.349028 78.806436 
3952.313477 78.806016 
3953.277927 78.802621 
3954.242376 78.797108 
3955.206825 78.793249 
3956.171275 78.788873 
3957.135724 78.784859 
3958.100173 78.779670 
3959.064623 78.768066 
3960.029072 78.756463 
3960.993522 78.754547 
3961.957971 78.752273 
3962.922420 78.747719 
3963.886870 78.738758 
3964.851319 78.730192 
3965.815768 78.724366 
3966.780218 78.715811 
3967.744667 78.711611 
3968.709116 78.710920 
3969.673566 78.706128 
3970.638015 78.701942 
3971.602464 78.699120 
3972.566914 78.696008 
3973.531363 78.691134 
3974.495813 78.685534 
3975.460262 78.681439 
3976.424711 78.678985 
3977.389161 78.676044 
3978.353610 78.670073 
3979.318059 78.663417 
3980.282509 78.662740 
3981.246958 78.660995 
3982.211407 78.657495 
3983.175857 78.654359 
3984.140306 78.651964 
3985.104756 78.648537 
3986.069205 78.644060 
3987.033654 78.640685 
3987.998104 78.637233 
3988.962553 78.631184 
3989.927002 78.626295 
3990.891452 78.621544 
3991.855901 78.615372 
3992.820350 78.609004 
3993.784800 78.604459 
3994.749249 78.600581 
3995.713698 78.595912 
3996.678148 78.591082 
3997.642597 78.586252 
3998.607047 78.580851 
3999.571496 78.576628 
4000.535945 78.574180 